#[MATERIAL DEFINITION FOR MC-GPU: interaction mean free path and sampling data from PENELOPE 2006]
#[MATERIAL NAME]
# Acrylic(C5H8O2)
#[NOMINAL DENSITY (g/cm^3)]
# 1.18
#[NUMBER OF DATA VALUES]
# 24001
#[MEAN FREE PATHS (cm)]
#[Energy (eV)     | Rayleigh        | Compton         | Photoelectric   | TOTAL (+pair prod) (cm) | Rayleigh: max cumul prob F^2]
5.000000000000000000e+03 2.019541114479932897e+00 7.527882774863786430e+00 3.224818210252362871e-02 3.160805867978298822e-02 3.401324020380925850e-01
5.005000000000000000e+03 2.021848303518319678e+00 7.523148590424312943e+00 3.234711747146184341e-02 3.170358343380337562e-02 3.403859062645754885e-01
5.010000000000000000e+03 2.024156554053645696e+00 7.518427891339709568e+00 3.244626304392152910e-02 3.179930343792342073e-02 3.406391925956309685e-01
5.015000000000000000e+03 2.026465864443036669e+00 7.513720623060450521e+00 3.254561906812163119e-02 3.189521888845675557e-02 3.408922616636687608e-01
5.020000000000000000e+03 2.028776233045785915e+00 7.509026731317692160e+00 3.264518579233403189e-02 3.199132998163567443e-02 3.411451140998633114e-01
5.025000000000000000e+03 2.031087658223348136e+00 7.504346162121508179e+00 3.274496346488281473e-02 3.208763691361008613e-02 3.413977505341516117e-01
5.030000000000000000e+03 2.033400138339342078e+00 7.499678861759107917e+00 3.284495233414550658e-02 3.218413988044862423e-02 3.416501715952308671e-01
5.035000000000000000e+03 2.035713671759528332e+00 7.495024776793134613e+00 3.294515264855171766e-02 3.228083907813700942e-02 3.419023779105564986e-01
5.040000000000000000e+03 2.038028256851813325e+00 7.490383854059903257e+00 3.304556465658418929e-02 3.237773470257883368e-02 3.421543701063401444e-01
5.045000000000000000e+03 2.040343891986220903e+00 7.485756040667725486e+00 3.314618860677760737e-02 3.247482694959423488e-02 3.424061488075474946e-01
5.050000000000000000e+03 2.042660575534899436e+00 7.481141283995186519e+00 3.324702474771928928e-02 3.257211601492027847e-02 3.426577146378959049e-01
5.055000000000000000e+03 2.044978305872115154e+00 7.476539531689440743e+00 3.334807332804924640e-02 3.266960209421082562e-02 3.429090682198530637e-01
5.060000000000000000e+03 2.047297081374223726e+00 7.471950731664585454e+00 3.344933459645921953e-02 3.276728538303531196e-02 3.431602101746348277e-01
5.065000000000000000e+03 2.049616900419689358e+00 7.467374832099943127e+00 3.355080880169379609e-02 3.286516607687967745e-02 3.434111411222030563e-01
5.070000000000000000e+03 2.051937761389044823e+00 7.462811781438451142e+00 3.365249619254922359e-02 3.296324437114491607e-02 3.436618616812641136e-01
5.075000000000000000e+03 2.054259662664910557e+00 7.458261528385001782e+00 3.375439701787411040e-02 3.306152046114755466e-02 3.439123724692669803e-01
5.080000000000000000e+03 2.056582602631972900e+00 7.453724021904813313e+00 3.385651152656916213e-02 3.315999454211914638e-02 3.441626741024013669e-01
5.085000000000000000e+03 2.058906579676973436e+00 7.449199211221834815e+00 3.395883996758691792e-02 3.325866680920586127e-02 3.444127671955961589e-01
5.090000000000000000e+03 2.061231592188706330e+00 7.444687045817123483e+00 3.406138258993181289e-02 3.335753745746815324e-02 3.446626523625178073e-01
5.095000000000000000e+03 2.063557638558003227e+00 7.440187475427274322e+00 3.416413964266001163e-02 3.345660668188053799e-02 3.449123302155682746e-01
5.100000000000000000e+03 2.065884717177738583e+00 7.435700450042801002e+00 3.426711137487981063e-02 3.355587467733163465e-02 3.451618013658839801e-01
5.105000000000000000e+03 2.068212826442803909e+00 7.431225919906616184e+00 3.437029803575088194e-02 3.365534163862326372e-02 3.454110664233338013e-01
5.110000000000000000e+03 2.070541964750107766e+00 7.426763835512448786e+00 3.447369987448447443e-02 3.375500776047038465e-02 3.456601259965179085e-01
5.115000000000000000e+03 2.072872130498580212e+00 7.422314147603282564e+00 3.457731714034394804e-02 3.385487323750139416e-02 3.459089806927659327e-01
5.120000000000000000e+03 2.075203322089136826e+00 7.417876807169865749e+00 3.468115008264360810e-02 3.395493826425671768e-02 3.461576311181360777e-01
5.125000000000000000e+03 2.077535537924692477e+00 7.413451765449151409e+00 3.478519895074934365e-02 3.405520303518924652e-02 3.464060778774127880e-01
5.130000000000000000e+03 2.079868776410140896e+00 7.409038973922807969e+00 3.488946399407827359e-02 3.415566774466376188e-02 3.466543215741065276e-01
5.135000000000000000e+03 2.082203035952366221e+00 7.404638384315684441e+00 3.499394546209932261e-02 3.425633258695725408e-02 3.469023628104515589e-01
5.140000000000000000e+03 2.084538314960209249e+00 7.400249948594368909e+00 3.509864360433220115e-02 3.435719775625763889e-02 3.471502021874051103e-01
5.145000000000000000e+03 2.086874611844467875e+00 7.395873618965683960e+00 3.520355867034764830e-02 3.445826344666384072e-02 3.473978403046458774e-01
5.150000000000000000e+03 2.089211925017911753e+00 7.391509347875186542e+00 3.530869090976827829e-02 3.455952985218634088e-02 3.476452777605731348e-01
5.155000000000000000e+03 2.091550252895234774e+00 7.387157088005782413e+00 3.541404057226674174e-02 3.466099716674519299e-02 3.478925151523052373e-01
5.160000000000000000e+03 2.093889593893080381e+00 7.382816792276216233e+00 3.551960790756736319e-02 3.476266558417134833e-02 3.481395530756785650e-01
5.165000000000000000e+03 2.096229946430019808e+00 7.378488413839654037e+00 3.562539316544515583e-02 3.486453529820541380e-02 3.483863921252465246e-01
5.170000000000000000e+03 2.098571308926544976e+00 7.374171906082265693e+00 3.573139659572597410e-02 3.496660650249769353e-02 3.486330328942784385e-01
5.175000000000000000e+03 2.100913679805065382e+00 7.369867222621799385e+00 3.583761844828652066e-02 3.506887939060786274e-02 3.488794759747584906e-01
5.180000000000000000e+03 2.103257057489891224e+00 7.365574317306176511e+00 3.594405897305395781e-02 3.517135415600439186e-02 3.491257219573846715e-01
5.185000000000000000e+03 2.105601440407237401e+00 7.361293144212106121e+00 3.605071842000626137e-02 3.527403099206462278e-02 3.493717714315678347e-01
5.190000000000000000e+03 2.107946826985216404e+00 7.357023657643656733e+00 3.615759703917232476e-02 3.537691009207469955e-02 3.496176249854308637e-01
5.195000000000000000e+03 2.110293215653816112e+00 7.352765812130951595e+00 3.626469508063099451e-02 3.547999164922831933e-02 3.498632832058078956e-01
5.200000000000000000e+03 2.112640604844904679e+00 7.348519562428734275e+00 3.637201279451180574e-02 3.558327585662728054e-02 3.501087466782430435e-01
5.205000000000000000e+03 2.114988992992220762e+00 7.344284863515062156e+00 3.647955043099467692e-02 3.568676290728090700e-02 3.503540159869898973e-01
5.210000000000000000e+03 2.117338378531373078e+00 7.340061670589912879e+00 3.658730824030998613e-02 3.579045299410587438e-02 3.505990917150106356e-01
5.215000000000000000e+03 2.119688759899815533e+00 7.335849939073888493e+00 3.669528647273803679e-02 3.589434630992557190e-02 3.508439744439753594e-01
5.220000000000000000e+03 2.122040135536855665e+00 7.331649624606866311e+00 3.680348537860960584e-02 3.599844304747020635e-02 3.510886647542612593e-01
5.225000000000000000e+03 2.124392503883643091e+00 7.327460683046688850e+00 3.691190520830537475e-02 3.610274339937616372e-02 3.513331632249517833e-01
5.230000000000000000e+03 2.126745863383164625e+00 7.323283070467835998e+00 3.702054621225635278e-02 3.620724755818616192e-02 3.515774704338363588e-01
5.235000000000000000e+03 2.129100212480228294e+00 7.319116743160155814e+00 3.712940864094329413e-02 3.631195571634837638e-02 3.518215869574095045e-01
5.240000000000000000e+03 2.131455549621468215e+00 7.314961657627552682e+00 3.723849274489689914e-02 3.641686806621648870e-02 3.520655133708701090e-01
5.245000000000000000e+03 2.133811873255335723e+00 7.310817770586694131e+00 3.734779877469816822e-02 3.652198480004972825e-02 3.523092502481212085e-01
5.250000000000000000e+03 2.136169181832077602e+00 7.306685038965787804e+00 3.745732698097711810e-02 3.662730611001146358e-02 3.525527981617691542e-01
5.255000000000000000e+03 2.138527473803757406e+00 7.302563419903248310e+00 3.756707761441435700e-02 3.673283218817038898e-02 3.527961576831232793e-01
5.260000000000000000e+03 2.140886747624212827e+00 7.298452870746512389e+00 3.767705092573940540e-02 3.683856322649874115e-02 3.530393293821952327e-01
5.265000000000000000e+03 2.143247001749081893e+00 7.294353349050743951e+00 3.778724716573175074e-02 3.694449941687307643e-02 3.532823138276989239e-01
5.270000000000000000e+03 2.145608234635779876e+00 7.290264812577614606e+00 3.789766658522045889e-02 3.705064095107364619e-02 3.535251115870494676e-01
5.275000000000000000e+03 2.147970444743497520e+00 7.286187219294070871e+00 3.800830943508416021e-02 3.715698802078409857e-02 3.537677232263635729e-01
5.280000000000000000e+03 2.150333630533187712e+00 7.282120527371130692e+00 3.811917596625057775e-02 3.726354081759086084e-02 3.540101493104584884e-01
5.285000000000000000e+03 2.152697790467569483e+00 7.278064695182639099e+00 3.823026642969718641e-02 3.737029953298354190e-02 3.542523904028521131e-01
5.290000000000000000e+03 2.155062923011106690e+00 7.274019681304119800e+00 3.834158107645016522e-02 3.747726435835361386e-02 3.544944470657625524e-01
5.295000000000000000e+03 2.157429026630023117e+00 7.269985444511504191e+00 3.845312015758572954e-02 3.758443548499548759e-02 3.547363198601078405e-01
5.300000000000000000e+03 2.159796099792270052e+00 7.265961943780032684e+00 3.856488392422834088e-02 3.769181310410458369e-02 3.549780093455056629e-01
5.305000000000000000e+03 2.162164140967551162e+00 7.261949138282994376e+00 3.867687262755258731e-02 3.779939740677886600e-02 3.552195160802732454e-01
5.310000000000000000e+03 2.164533148627274972e+00 7.257946987390639926e+00 3.878908651878082425e-02 3.790718858401633667e-02 3.554608406214272431e-01
5.315000000000000000e+03 2.166903121244599273e+00 7.253955450668927440e+00 3.890152584918583900e-02 3.801518682671740923e-02 3.557019835246831296e-01
5.320000000000000000e+03 2.169274057294368063e+00 7.249974487878471763e+00 3.901419087008783232e-02 3.812339232568170977e-02 3.559429453444556968e-01
5.325000000000000000e+03 2.171645955253166616e+00 7.246004058973296580e+00 3.912708183285728419e-02 3.823180527161054720e-02 3.561837266338586105e-01
5.330000000000000000e+03 2.174018813599255751e+00 7.242044124099795255e+00 3.924019898891217828e-02 3.834042585510423484e-02 3.564243279447042445e-01
5.335000000000000000e+03 2.176392630812609585e+00 7.238094643595518463e+00 3.935354258972008357e-02 3.844925426666352675e-02 3.566647498275038464e-01
5.340000000000000000e+03 2.178767405374895993e+00 7.234155577988103047e+00 3.946711288679705110e-02 3.855829069668856302e-02 3.569049928314673714e-01
5.345000000000000000e+03 2.181143135769449071e+00 7.230226887994155582e+00 3.958091013170721151e-02 3.866753533547816202e-02 3.571450575045035380e-01
5.350000000000000000e+03 2.183519820481309548e+00 7.226308534518108395e+00 3.969493457606416975e-02 3.877698837323093062e-02 3.573849443932200498e-01
5.355000000000000000e+03 2.185897457997162618e+00 7.222400478651186617e+00 3.980918647152878465e-02 3.888665000004284250e-02 3.576246540429230958e-01
5.360000000000000000e+03 2.188276046805387232e+00 7.218502681670234900e+00 3.992366606981155586e-02 3.899652040590937535e-02 3.578641869976181278e-01
5.365000000000000000e+03 2.190655585396002358e+00 7.214615105036715548e+00 4.003837362267035488e-02 3.910659978072301285e-02 3.581035438000094162e-01
5.370000000000000000e+03 2.193036072260701186e+00 7.210737710395569877e+00 4.015330938191215282e-02 3.921688831427477817e-02 3.583427249915006052e-01
5.375000000000000000e+03 2.195417505892811150e+00 7.206870459574197696e+00 4.026847359939129956e-02 3.932738619625215926e-02 3.585817311121943796e-01
5.380000000000000000e+03 2.197799884787309477e+00 7.203013314581369286e+00 4.038386652701077967e-02 3.943809361624028148e-02 3.588205627008930754e-01
5.385000000000000000e+03 2.200183207440812971e+00 7.199166237606168472e+00 4.049948841672156713e-02 3.954901076372090152e-02 3.590592202950987355e-01
5.390000000000000000e+03 2.202567472351576683e+00 7.195329191016955228e+00 4.061533952052296531e-02 3.966013782807254612e-02 3.592977044310132761e-01
5.395000000000000000e+03 2.204952678019468593e+00 7.191502137360343383e+00 4.073142009046167022e-02 3.977147499856937413e-02 3.595360156435388199e-01
5.400000000000000000e+03 2.207338822945994483e+00 7.187685039360125039e+00 4.084773037863290851e-02 3.988302246438201609e-02 3.597741544662779178e-01
5.405000000000000000e+03 2.209725905634257526e+00 7.183877859916310449e+00 4.096427063717898026e-02 3.999478041457596444e-02 3.600121214315338269e-01
5.410000000000000000e+03 2.212113924588986702e+00 7.180080562104038222e+00 4.108104111829070232e-02 4.010674903811267678e-02 3.602499170703109543e-01
5.415000000000000000e+03 2.214502878316510159e+00 7.176293109172609874e+00 4.119804207420622866e-02 4.021892852384823663e-02 3.604875419123150238e-01
5.420000000000000000e+03 2.216892765324751213e+00 7.172515464544479968e+00 4.131527375721143897e-02 4.033131906053342985e-02 3.607249964859535196e-01
5.425000000000000000e+03 2.219283584123232789e+00 7.168747591814240927e+00 4.143273641963986231e-02 4.044392083681353639e-02 3.609622813183362422e-01
5.430000000000000000e+03 2.221675333223066762e+00 7.164989454747652253e+00 4.155043031387258001e-02 4.055673404122790704e-02 3.611993969352753076e-01
5.435000000000000000e+03 2.224068011136939749e+00 7.161241017280655541e+00 4.166835569233783704e-02 4.066975886220938058e-02 3.614363438612861468e-01
5.440000000000000000e+03 2.226461616379128206e+00 7.157502243518366392e+00 4.178651280751199265e-02 4.078299548808494990e-02 3.616731226195873949e-01
5.445000000000000000e+03 2.228856147465465565e+00 7.153773097734164921e+00 4.190490191191773017e-02 4.089644410707374972e-02 3.619097337321016128e-01
5.450000000000000000e+03 2.231251602913366217e+00 7.150053544368662806e+00 4.202352325812590272e-02 4.101010490728875663e-02 3.621461777194560083e-01
5.455000000000000000e+03 2.233647981241801972e+00 7.146343548028792902e+00 4.214237709875431198e-02 4.112397807673517230e-02 3.623824551009826589e-01
5.460000000000000000e+03 2.236045280971293625e+00 7.142643073486847349e+00 4.226146368646766655e-02 4.123806380331022231e-02 3.626185663947188442e-01
5.465000000000000000e+03 2.238443500623926941e+00 7.138952085679516557e+00 4.238078327397821338e-02 4.135236227480358628e-02 3.628545121174083232e-01
5.470000000000000000e+03 2.240842638723322011e+00 7.135270549706981491e+00 4.250033611404483574e-02 4.146687367889621834e-02 3.630902927845013339e-01
5.475000000000000000e+03 2.243242693794645692e+00 7.131598430831950886e+00 4.262012245947364997e-02 4.158159820316065236e-02 3.633259089101550376e-01
5.480000000000000000e+03 2.245643664364605829e+00 7.127935694478749085e+00 4.274014256311783194e-02 4.169653603506068285e-02 3.635613610072349622e-01
5.485000000000000000e+03 2.248045548961428608e+00 7.124282306232408324e+00 4.286039667787694407e-02 4.181168736195039343e-02 3.637966495873146688e-01
5.490000000000000000e+03 2.250448346114869658e+00 7.120638231837751242e+00 4.298088505669742793e-02 4.192705237107445526e-02 3.640317751606771957e-01
5.495000000000000000e+03 2.252852054356222045e+00 7.117003437198436977e+00 4.310160795257336058e-02 4.204263124956854336e-02 3.642667382363151685e-01
5.500000000000000000e+03 2.255256672218267422e+00 7.113377888376155589e+00 4.322256561854392887e-02 4.215842418445674838e-02 3.645015393219319111e-01
5.505000000000000000e+03 2.257662198235322659e+00 7.109761551589636852e+00 4.334375830769637145e-02 4.227443136265407464e-02 3.647361789239418894e-01
5.510000000000000000e+03 2.260068630943196766e+00 7.106154393213825138e+00 4.346518627316364042e-02 4.239065297096399065e-02 3.649706575474715997e-01
5.515000000000000000e+03 2.262475968879207766e+00 7.102556379778958373e+00 4.358684976812564338e-02 4.250708919607946307e-02 3.652049756963602900e-01
5.520000000000000000e+03 2.264884210582162716e+00 7.098967477969727824e+00 4.370874904580831360e-02 4.262374022458160355e-02 3.654391338731607375e-01
5.525000000000000000e+03 2.267293354592366583e+00 7.095387654624370377e+00 4.383088435948422068e-02 4.274060624294028637e-02 3.656731325791398590e-01
5.530000000000000000e+03 2.269703399451607151e+00 7.091816876733820330e+00 4.395325596247212641e-02 4.285768743751329490e-02 3.659069723142799324e-01
5.535000000000000000e+03 2.272114343703160344e+00 7.088255111440854073e+00 4.407586410813724154e-02 4.297498399454631468e-02 3.661406535772790405e-01
5.540000000000000000e+03 2.274526185891773800e+00 7.084702326039225895e+00 4.419870904989078864e-02 4.309249610017239912e-02 3.663741768655520148e-01
5.545000000000000000e+03 2.276938924563670419e+00 7.081158487972826876e+00 4.432179104119016860e-02 4.321022394041183073e-02 3.666075426752315458e-01
5.550000000000000000e+03 2.279352558266536821e+00 7.077623564834846448e+00 4.444511033553867618e-02 4.332816770117154520e-02 3.668407515011686826e-01
5.555000000000000000e+03 2.281767085549537555e+00 7.074097524366910861e+00 4.456866718648636039e-02 4.344632756824574893e-02 3.670738038369339984e-01
5.560000000000000000e+03 2.284182504963272020e+00 7.070580334458298033e+00 4.469246184762794977e-02 4.356470372731373331e-02 3.673067001748183680e-01
5.565000000000000000e+03 2.286598815059820655e+00 7.067071963145051150e+00 4.481649457260526714e-02 4.368329636394194943e-02 3.675394410058340777e-01
5.570000000000000000e+03 2.289016014392694753e+00 7.063572378609219271e+00 4.494076561510540468e-02 4.380210566358187785e-02 3.677720268197154363e-01
5.575000000000000000e+03 2.291434101516857780e+00 7.060081549177994908e+00 4.506527522886136228e-02 4.392113181157054902e-02 3.680044581049201069e-01
5.580000000000000000e+03 2.293853074988709828e+00 7.056599443322943088e+00 4.519002366765138834e-02 4.404037499312965509e-02 3.682367353486300510e-01
5.585000000000000000e+03 2.296272933366098723e+00 7.053126029659149587e+00 4.531501118530034677e-02 4.415983539336652136e-02 3.684688590367521388e-01
5.590000000000000000e+03 2.298693675208293374e+00 7.049661276944472199e+00 4.544023803567801001e-02 4.427951319727228136e-02 3.687008296539195928e-01
5.595000000000000000e+03 2.301115299075989551e+00 7.046205154078720945e+00 4.556570447269955165e-02 4.439940858972214049e-02 3.689326476834929314e-01
5.600000000000000000e+03 2.303537803531316541e+00 7.042757630102861377e+00 4.569141075032630284e-02 4.451952175547577856e-02 3.691643136075608567e-01
5.605000000000000000e+03 2.305961187137809176e+00 7.039318674198264070e+00 4.581735712256417709e-02 4.463985287917566352e-02 3.693958279069414763e-01
5.610000000000000000e+03 2.308385448460428258e+00 7.035888255685883053e+00 4.594354384346516218e-02 4.476040214534823120e-02 3.696271910611833023e-01
5.615000000000000000e+03 2.310810586065541905e+00 7.032466344025515070e+00 4.606997116712629320e-02 4.488116973840262230e-02 3.698584035485663057e-01
5.620000000000000000e+03 2.313236598520922893e+00 7.029052908815019762e+00 4.619663934768982599e-02 4.500215584263059926e-02 3.700894658461031383e-01
5.625000000000000000e+03 2.315663484395737104e+00 7.025647919789570928e+00 4.632354863934279310e-02 4.512336064220594245e-02 3.703203784295401868e-01
5.630000000000000000e+03 2.318091242260568396e+00 7.022251346820860718e+00 4.645069929631830824e-02 4.524478432118535232e-02 3.705511417733587387e-01
5.635000000000000000e+03 2.320519870687376418e+00 7.018863159916390870e+00 4.657809157289370672e-02 4.536642706350656196e-02 3.707817563507759817e-01
5.640000000000000000e+03 2.322949368249518365e+00 7.015483329218699993e+00 4.670572572339165562e-02 4.548828905298898245e-02 3.710122226337465023e-01
5.645000000000000000e+03 2.325379733521732550e+00 7.012111825004624599e+00 4.683360200217977914e-02 4.561037047333327266e-02 3.712425410929630631e-01
5.650000000000000000e+03 2.327810965080141514e+00 7.008748617684564586e+00 4.696172066367054060e-02 4.573267150812086040e-02 3.714727121978581570e-01
5.655000000000000000e+03 2.330243061502239588e+00 7.005393677801746044e+00 4.709008196232103427e-02 4.585519234081357476e-02 3.717027364166050063e-01
5.660000000000000000e+03 2.332676021366896002e+00 7.002046976031495618e+00 4.721868615263332541e-02 4.597793315475361825e-02 3.719326142161188953e-01
5.665000000000000000e+03 2.335109843254357553e+00 6.998708483180502427e+00 4.734753348915445026e-02 4.610089413316349749e-02 3.721623460620581691e-01
5.670000000000000000e+03 2.337544525746227730e+00 6.995378170186116407e+00 4.747662422647593028e-02 4.622407545914514193e-02 3.723919324188258440e-01
5.675000000000000000e+03 2.339980067425462273e+00 6.992056008115642207e+00 4.760595861923321015e-02 4.634747731567919610e-02 3.726213737495707168e-01
5.680000000000000000e+03 2.342416466876394487e+00 6.988741968165585128e+00 4.773553692210746185e-02 4.647109988562651145e-02 3.728506705161883095e-01
5.685000000000000000e+03 2.344853722684690833e+00 6.985436021660999195e+00 4.786535938982323934e-02 4.659494335172564838e-02 3.730798231793227560e-01
5.690000000000000000e+03 2.347291833437382902e+00 6.982138140054741982e+00 4.799542627715042836e-02 4.671900789659444442e-02 3.733088321983677460e-01
5.695000000000000000e+03 2.349730797722835440e+00 6.978848294926813800e+00 4.812573783890276152e-02 4.684329370272843907e-02 3.735376980314678574e-01
5.700000000000000000e+03 2.352170614130755233e+00 6.975566457983644497e+00 4.825629432993796403e-02 4.696780095250073506e-02 3.737664211355199440e-01
5.705000000000000000e+03 2.354611281252198651e+00 6.972292601057395345e+00 4.838709600515898879e-02 4.709252982816281713e-02 3.739950019661743563e-01
5.710000000000000000e+03 2.357052797679541456e+00 6.969026696105314223e+00 4.851814311951210129e-02 4.721748051184270628e-02 3.742234409778366078e-01
5.715000000000000000e+03 2.359495162006494340e+00 6.965768715209017969e+00 4.864943592798793431e-02 4.734265318554550794e-02 3.744517386236683176e-01
5.720000000000000000e+03 2.361938372828096266e+00 6.962518630573841349e+00 4.878097468562145322e-02 4.746804803115323157e-02 3.746798953555888767e-01
5.725000000000000000e+03 2.364382428740710029e+00 6.959276414528148713e+00 4.891275964749149802e-02 4.759366523042413144e-02 3.749079116242767240e-01
5.730000000000000000e+03 2.366827328342013814e+00 6.956042039522690956e+00 4.904479106872079719e-02 4.771950496499241523e-02 3.751357878791707900e-01
5.735000000000000000e+03 2.369273070230992762e+00 6.952815478129932281e+00 4.917706920447566243e-02 4.784556741636771665e-02 3.753635245684719401e-01
5.740000000000000000e+03 2.371719653007961615e+00 6.949596703043376955e+00 4.930959430996716131e-02 4.797185276593597669e-02 3.755911221391442512e-01
5.745000000000000000e+03 2.374167075274520755e+00 6.946385687076954696e+00 4.944236664044896618e-02 4.809836119495713297e-02 3.758185810369165103e-01
5.750000000000000000e+03 2.376615335633598836e+00 6.943182403164319894e+00 4.957538645121966486e-02 4.822509288456714588e-02 3.760459017062838250e-01
5.755000000000000000e+03 2.379064432689406594e+00 6.939986824358257422e+00 4.970865399762079695e-02 4.835204801577579897e-02 3.762730845905088994e-01
5.760000000000000000e+03 2.381514365047454618e+00 6.936798923830016506e+00 4.984216953503745051e-02 4.847922676946699733e-02 3.765001301316234228e-01
5.765000000000000000e+03 2.383965131314548458e+00 6.933618674868674780e+00 4.997593331889858825e-02 4.860662932639897571e-02 3.767270387704297341e-01
5.770000000000000000e+03 2.386416730098788630e+00 6.930446050880505915e+00 5.010994560467672138e-02 4.873425586720359082e-02 3.769538109465022657e-01
5.775000000000000000e+03 2.388869160009551074e+00 6.927281025388361435e+00 5.024420664788750018e-02 4.886210657238571065e-02 3.771804470981890423e-01
5.780000000000000000e+03 2.391322419657504028e+00 6.924123572031027685e+00 5.037871670409014430e-02 4.899018162232346429e-02 3.774069476626130681e-01
5.785000000000000000e+03 2.393776507654592933e+00 6.920973664562617422e+00 5.051347602888744265e-02 4.911848119726790196e-02 3.776333130756739931e-01
5.790000000000000000e+03 2.396231422614031992e+00 6.917831276851965860e+00 5.064848487792488613e-02 4.924700547734201656e-02 3.778595437720496109e-01
5.795000000000000000e+03 2.398687163150311719e+00 6.914696382881992065e+00 5.078374350689148636e-02 4.937575464254114616e-02 3.780856401851972470e-01
5.800000000000000000e+03 2.401143727879192724e+00 6.911568956749100323e+00 5.091925217151956062e-02 4.950472887273260625e-02 3.783116027473557019e-01
5.805000000000000000e+03 2.403601115417708822e+00 6.908448972662569076e+00 5.105501112758471099e-02 4.963392834765545381e-02 3.785374318895463053e-01
5.810000000000000000e+03 2.406059324384132392e+00 6.905336404943986039e+00 5.119102063090464477e-02 4.976335324691902318e-02 3.787631280415746371e-01
5.815000000000000000e+03 2.408518353398021894e+00 6.902231228026587395e+00 5.132728093734116592e-02 4.989300375000466081e-02 3.789886916320325261e-01
5.820000000000000000e+03 2.410978201080172134e+00 6.899133416454718670e+00 5.146379230279835709e-02 5.002288003626371299e-02 3.792141230882990488e-01
5.825000000000000000e+03 2.413438866052636467e+00 6.896042944883217451e+00 5.160055498322338452e-02 5.015298228491802540e-02 3.794394228365424726e-01
5.830000000000000000e+03 2.415900346938713916e+00 6.892959788076840510e+00 5.173756923460605395e-02 5.028331067505922847e-02 3.796645913017216434e-01
5.835000000000000000e+03 2.418362642362954507e+00 6.889883920909664283e+00 5.187483531297924083e-02 5.041386538564909120e-02 3.798896289075879285e-01
5.840000000000000000e+03 2.420825750951149935e+00 6.886815318364520877e+00 5.201235347441851564e-02 5.054464659551869549e-02 3.801145360766863823e-01
5.845000000000000000e+03 2.423289671330329131e+00 6.883753955532415425e+00 5.215012397504208141e-02 5.067565448336825568e-02 3.803393132303579116e-01
5.850000000000000000e+03 2.425754402128747156e+00 6.880699807611970975e+00 5.228814707101016312e-02 5.080688922776623734e-02 3.805639607887403297e-01
5.855000000000000000e+03 2.428219941975903406e+00 6.877652849908831634e+00 5.242642301852615955e-02 5.093835100715021769e-02 3.807884791707705219e-01
5.860000000000000000e+03 2.430686289502526964e+00 6.874613057835111896e+00 5.256495207383604651e-02 5.107003999982610148e-02 3.810128687941857217e-01
5.865000000000000000e+03 2.433153443340562383e+00 6.871580406908851302e+00 5.270373449322753034e-02 5.120195638396701082e-02 3.812371300755255654e-01
5.870000000000000000e+03 2.435621402123190116e+00 6.868554872753425578e+00 5.284277053303157445e-02 5.133410033761453412e-02 3.814612634301333127e-01
5.875000000000000000e+03 2.438090164484802536e+00 6.865536431097017278e+00 5.298206044962090050e-02 5.146647203867703996e-02 3.816852692721579010e-01
5.880000000000000000e+03 2.440559729061004379e+00 6.862525057772060677e+00 5.312160449941032841e-02 5.159907166492973957e-02 3.819091480145554440e-01
5.885000000000000000e+03 2.443030094488628734e+00 6.859520728714678661e+00 5.326140293885767152e-02 5.173189939401529047e-02 3.821329000690909528e-01
5.890000000000000000e+03 2.445501259405705063e+00 6.856523419964162258e+00 5.340145602446205036e-02 5.186495540344199934e-02 3.823565258463401673e-01
5.895000000000000000e+03 2.447973222451473418e+00 6.853533107662413748e+00 5.354176401276497521e-02 5.199823987058450198e-02 3.825800257556909445e-01
5.900000000000000000e+03 2.450445982266385769e+00 6.850549768053417310e+00 5.368232716035038765e-02 5.213175297268365233e-02 3.828034002053455342e-01
5.905000000000000000e+03 2.452919537492084245e+00 6.847573377482699897e+00 5.382314572384339080e-02 5.226549488684501671e-02 3.830266496023216893e-01
5.910000000000000000e+03 2.455393886771420675e+00 6.844603912396799217e+00 5.396421995991203258e-02 5.239946579004028937e-02 3.832497743524548861e-01
5.915000000000000000e+03 2.457869028748433937e+00 6.841641349342751255e+00 5.410555012526548774e-02 5.253366585910543285e-02 3.834727748603997677e-01
5.920000000000000000e+03 2.460344962068353514e+00 6.838685664967555589e+00 5.424713647665463379e-02 5.266809527074081676e-02 3.836956515296318648e-01
5.925000000000000000e+03 2.462821685377614589e+00 6.835736836017634488e+00 5.438897927087318895e-02 5.280275420151219617e-02 3.839184047624497609e-01
5.930000000000000000e+03 2.465299197323813196e+00 6.832794839338369286e+00 5.453107876475497828e-02 5.293764282784775566e-02 3.841410349599764795e-01
5.935000000000000000e+03 2.467777496555754180e+00 6.829859651873516846e+00 5.467343521517707000e-02 5.307276132604092644e-02 3.843635425221612056e-01
5.940000000000000000e+03 2.470256581723403233e+00 6.826931250664768136e+00 5.481604887905690282e-02 5.320810987224734723e-02 3.845859278477813947e-01
5.945000000000000000e+03 2.472736451477922870e+00 6.824009612851172690e+00 5.495892001335450638e-02 5.334368864248675846e-02 3.848081913344442717e-01
5.950000000000000000e+03 2.475217104471626239e+00 6.821094715668701625e+00 5.510204887507006571e-02 5.347949781264040026e-02 3.850303333785887183e-01
5.955000000000000000e+03 2.477698539358028196e+00 6.818186536449675650e+00 5.524543572124698820e-02 5.361553755845373942e-02 3.852523543754871604e-01
5.960000000000000000e+03 2.480180754791784459e+00 6.815285052622334305e+00 5.538908080896817743e-02 5.375180805553263913e-02 3.854742547192472335e-01
5.965000000000000000e+03 2.482663749428736022e+00 6.812390241710288841e+00 5.553298439535913483e-02 5.388830947934605820e-02 3.856960348028135588e-01
5.970000000000000000e+03 2.485147521925883840e+00 6.809502081332050594e+00 5.567714673758643318e-02 5.402504200522432326e-02 3.859176950179697974e-01
5.975000000000000000e+03 2.487632070941382612e+00 6.806620549200546044e+00 5.582156809285743898e-02 5.416200580835873329e-02 3.861392357553403154e-01
5.980000000000000000e+03 2.490117395134553657e+00 6.803745623122619435e+00 5.596624871842101334e-02 5.429920106380178857e-02 3.863606574043917941e-01
