#[MATERIAL DEFINITION FOR MC-GPU: interaction mean free path and sampling data from PENELOPE 2006]
#[MATERIAL NAME]
# adipose(0.114:H_0.588:C_0.008:N_0.287:O_0.001:Na_0.001:S_0.001:Cl)
#[NOMINAL DENSITY (g/cm^3)]
# 0.95
#[NUMBER OF DATA VALUES]
# 24001
#[MEAN FREE PATHS (cm)]
#[Energy (eV)     | Rayleigh        | Compton         | Photoelectric   | TOTAL (+pair prod) (cm) | Rayleigh: max cumul prob F^2]
5.000000000000000000e+03 2.596201904226532076e+00 8.780431438263148536e+00 4.108468644471578723e-02 4.025921003429345363e-02 3.400844141970683077e-01
5.005000000000000000e+03 2.599169367498370242e+00 8.775135208890848304e+00 4.121034827632187592e-02 4.038047053421760929e-02 3.403378186614587908e-01
5.010000000000000000e+03 2.602138168499991355e+00 8.769854071074375312e+00 4.133627589867309299e-02 4.050197749986760021e-02 3.405910100253585204e-01
5.015000000000000000e+03 2.605108305135324098e+00 8.764587963846356189e+00 4.146246962360429500e-02 4.062373117583950588e-02 3.408439889156874014e-01
5.020000000000000000e+03 2.608079775311086035e+00 8.759336826552010180e+00 4.158892976301749311e-02 4.074573180662187377e-02 3.410967559580859731e-01
5.025000000000000000e+03 2.611052576936770730e+00 8.754100598847230685e+00 4.171565662888070125e-02 4.086797963659462990e-02 3.413493117769136886e-01
5.030000000000000000e+03 2.614026707924658410e+00 8.748879220696567316e+00 4.184265053322983735e-02 4.099047491003032090e-02 3.416016569952466386e-01
5.035000000000000000e+03 2.617002166189781320e+00 8.743672632371369602e+00 4.196991178816675272e-02 4.111321787109212950e-02 3.418537922348761637e-01
5.040000000000000000e+03 2.619978949649930833e+00 8.738480774447804578e+00 4.209744070586067533e-02 4.123620876383481126e-02 3.421057181163073557e-01
5.045000000000000000e+03 2.622957056225625916e+00 8.733303587805028911e+00 4.222523759854675957e-02 4.135944783220305010e-02 3.423574352587568925e-01
5.050000000000000000e+03 2.625936483840117130e+00 8.728141013623236688e+00 4.235330277852681485e-02 4.148293532003193701e-02 3.426089442801514284e-01
5.055000000000000000e+03 2.628917230419380857e+00 8.722992993381803117e+00 4.248163655816957623e-02 4.160667147104678276e-02 3.428602457971264283e-01
5.060000000000000000e+03 2.631899293892085101e+00 8.717859468857465544e+00 4.261023924990934436e-02 4.173065652886162602e-02 3.431113404250241139e-01
5.065000000000000000e+03 2.634882672189609476e+00 8.712740382122406757e+00 4.273911116624748430e-02 4.185489073698035745e-02 3.433622287778921867e-01
5.070000000000000000e+03 2.637867363246000352e+00 8.707635675542489295e+00 4.286825261975091977e-02 4.197937433879486702e-02 3.436129114684824404e-01
5.075000000000000000e+03 2.640853364997989061e+00 8.702545291775388492e+00 4.299766392305300750e-02 4.210410757758575179e-02 3.438633891082490401e-01
5.080000000000000000e+03 2.643840675384969252e+00 8.697469173768809014e+00 4.312734538885325958e-02 4.222909069652156649e-02 3.441136623073472456e-01
5.085000000000000000e+03 2.646829292348984008e+00 8.692407264758688967e+00 4.325729732991698273e-02 4.235432393865833783e-02 3.443637316746323562e-01
5.090000000000000000e+03 2.649819213834719633e+00 8.687359508267423536e+00 4.338752005907531989e-02 4.247980754693920363e-02 3.446135978176578796e-01
5.095000000000000000e+03 2.652810437789486997e+00 8.682325848102099286e+00 4.351801388922517388e-02 4.260554176419401734e-02 3.448632613426744209e-01
5.100000000000000000e+03 2.655802962163233083e+00 8.677306228352712481e+00 4.364877913332958215e-02 4.273152683313952843e-02 3.451127228546287951e-01
5.105000000000000000e+03 2.658796784908502353e+00 8.672300593390474432e+00 4.377981610441689098e-02 4.285776299637814035e-02 3.453619829571621946e-01
5.110000000000000000e+03 2.661791903980440299e+00 8.667308887866056466e+00 4.391112511558092901e-02 4.298425049639788276e-02 3.456110422526095793e-01
5.115000000000000000e+03 2.664788317336798773e+00 8.662331056707849086e+00 4.404270647998177052e-02 4.311098957557275846e-02 3.458599013419981216e-01
5.120000000000000000e+03 2.667786022937893353e+00 8.657367045120322402e+00 4.417456051084418800e-02 4.323798047616101564e-02 3.461085608250465961e-01
5.125000000000000000e+03 2.670785018746612671e+00 8.652416798582283519e+00 4.430668752145845712e-02 4.336522344030561277e-02 3.463570213001636033e-01
5.130000000000000000e+03 2.673785302728403312e+00 8.647480262845219201e+00 4.443908782518014161e-02 4.349271871003362877e-02 3.466052833644474029e-01
5.135000000000000000e+03 2.676786872851279142e+00 8.642557383931611881e+00 4.457176173543044712e-02 4.362046652725648510e-02 3.468533476136842486e-01
5.140000000000000000e+03 2.679789727085778228e+00 8.637648108133301861e+00 4.470470956569527754e-02 4.374846713376846080e-02 3.471012146423477218e-01
5.145000000000000000e+03 2.682793863404962842e+00 8.632752382009860170e+00 4.483793162952538769e-02 4.387672077124673414e-02 3.473488850435977882e-01
5.150000000000000000e+03 2.685799279784446991e+00 8.627870152386892144e+00 4.497142824053746574e-02 4.400522768125216672e-02 3.475963594092799647e-01
5.155000000000000000e+03 2.688805974202319593e+00 8.623001366354513308e+00 4.510519971241190584e-02 4.413398810522663890e-02 3.478436383299244872e-01
5.160000000000000000e+03 2.691813944639195988e+00 8.618145971265654737e+00 4.523924635889479268e-02 4.426300228449477764e-02 3.480907223947450890e-01
5.165000000000000000e+03 2.694823189078175751e+00 8.613303914734521172e+00 4.537356849379670098e-02 4.439227046026258949e-02 3.483376121916390011e-01
5.170000000000000000e+03 2.697833705504841362e+00 8.608475144634983423e+00 4.550816643099289682e-02 4.452179287361716226e-02 3.485843083071855641e-01
5.175000000000000000e+03 2.700845491907252871e+00 8.603659609099006289e+00 4.564304048442337225e-02 4.465156976552652618e-02 3.488308113266458399e-01
5.180000000000000000e+03 2.703858546275926145e+00 8.598857256515113789e+00 4.577819096809232491e-02 4.478160137683879355e-02 3.490771218339616122e-01
5.185000000000000000e+03 2.706872866603836858e+00 8.594068035526799321e+00 4.591361819606862293e-02 4.491188794828229747e-02 3.493232404117552203e-01
5.190000000000000000e+03 2.709888450886415612e+00 8.589291895030982005e+00 4.604932248248599230e-02 4.504242972046552940e-02 3.495691676413285043e-01
5.195000000000000000e+03 2.712905297121514625e+00 8.584528784176537641e+00 4.618530414154173314e-02 4.517322693387546689e-02 3.498149041026624717e-01
5.200000000000000000e+03 2.715923403309419282e+00 8.579778652362721303e+00 4.632156348749769115e-02 4.530427982887839239e-02 3.500604503744169094e-01
5.205000000000000000e+03 2.718942767452834364e+00 8.575041449237689406e+00 4.645810083467993845e-02 4.543558864571908829e-02 3.503058070339292174e-01
5.210000000000000000e+03 2.721963387556880054e+00 8.570317124696980926e+00 4.659491649747873193e-02 4.556715362452058021e-02 3.505509746572147978e-01
5.215000000000000000e+03 2.724985261629065736e+00 8.565605628882059008e+00 4.673201079034803446e-02 4.569897500528346396e-02 3.507959538189659443e-01
5.220000000000000000e+03 2.728008387679297986e+00 8.560906912178818828e+00 4.686938402780600754e-02 4.583105302788583607e-02 3.510407450925516759e-01
5.225000000000000000e+03 2.731032763719866807e+00 8.556220925216130979e+00 4.700703652443452563e-02 4.596338793208271795e-02 3.512853490500174036e-01
5.230000000000000000e+03 2.734058387765438525e+00 8.551547618864372424e+00 4.714496859487953689e-02 4.609597995750606275e-02 3.515297662620843755e-01
5.235000000000000000e+03 2.737085257833039353e+00 8.546886944234003636e+00 4.728318055385039020e-02 4.622882934366373542e-02 3.517739972981495655e-01
5.240000000000000000e+03 2.740113371942054510e+00 8.542238852674124416e+00 4.742167271612016122e-02 4.636193632993959590e-02 3.520180427262852851e-01
5.245000000000000000e+03 2.743142728114226880e+00 8.537603295771029721e+00 4.756044539652603403e-02 4.649530115559344368e-02 3.522619031132387946e-01
5.250000000000000000e+03 2.746173324373621050e+00 8.532980225346850744e+00 4.769949890996769137e-02 4.662892405975931770e-02 3.525055790244323584e-01
5.255000000000000000e+03 2.749205158746654831e+00 8.528369593458078768e+00 4.783883357140941012e-02 4.676280528144709930e-02 3.527490710239626348e-01
5.260000000000000000e+03 2.752238229262043756e+00 8.523771352394248879e+00 4.797844969587772290e-02 4.689694505953998643e-02 3.529923796746008424e-01
5.265000000000000000e+03 2.755272533950835268e+00 8.519185454676486913e+00 4.811834759846302795e-02 4.703134363279569408e-02 3.532355055377924269e-01
5.270000000000000000e+03 2.758308070846380300e+00 8.514611853056178958e+00 4.825852759431897149e-02 4.716600123984562160e-02 3.534784491736570611e-01
5.275000000000000000e+03 2.761344837984330614e+00 8.510050500513576921e+00 4.839898999866237839e-02 4.730091811919442946e-02 3.537212111409883675e-01
5.280000000000000000e+03 2.764382833402617923e+00 8.505501350256478688e+00 4.853973512677281499e-02 4.743609450921929677e-02 3.539637919972540292e-01
5.285000000000000000e+03 2.767422055141468107e+00 8.500964355718842569e+00 4.868076329399329688e-02 4.757153064817042087e-02 3.542061922985955680e-01
5.290000000000000000e+03 2.770462501243363906e+00 8.496439470559495888e+00 4.882207481572908153e-02 4.770722677416933122e-02 3.544484125998285107e-01
5.295000000000000000e+03 2.773504169753073789e+00 8.491926648660756527e+00 4.896367000744924342e-02 4.784318312521022853e-02 3.546904534544424448e-01
5.300000000000000000e+03 2.776547058717603988e+00 8.487425844127162833e+00 4.910554918468454377e-02 4.797939993915768808e-02 3.549323154146006298e-01
5.305000000000000000e+03 2.779591166186233142e+00 8.482937011284121809e+00 4.924771266302974126e-02 4.811587745374835273e-02 3.551739990311407191e-01
5.310000000000000000e+03 2.782636490210451452e+00 8.478460104676669218e+00 4.939016075814055273e-02 4.825261590658800476e-02 3.554155048535742600e-01
5.315000000000000000e+03 2.785683028844019304e+00 8.473995079068091130e+00 4.953289378573721286e-02 4.838961553515441771e-02 3.556568334300871381e-01
5.320000000000000000e+03 2.788730780142882892e+00 8.469541889438747972e+00 4.967591206160053979e-02 4.852687657679339434e-02 3.558979853075395772e-01
5.325000000000000000e+03 2.791779742165248823e+00 8.465100490984694304e+00 4.981921590157551566e-02 4.866439926872182659e-02 3.561389610314665277e-01
5.330000000000000000e+03 2.794829912971496633e+00 8.460670839116517072e+00 4.996280562156795585e-02 4.880218384802426784e-02 3.563797611460775561e-01
5.335000000000000000e+03 2.797881290624232076e+00 8.456252889457992694e+00 5.010668153754695153e-02 4.894023055165493130e-02 3.566203861942571218e-01
5.340000000000000000e+03 2.800933873188256040e+00 8.451846597844902220e+00 5.025084396554368310e-02 4.907853961643618423e-02 3.568608367175651885e-01
5.345000000000000000e+03 2.803987658730536126e+00 8.447451920323771901e+00 5.039529322165076097e-02 4.921711127905768063e-02 3.571011132562369461e-01
5.350000000000000000e+03 2.807042645320253715e+00 8.443068813150622631e+00 5.054002962202405747e-02 4.935594577607781835e-02 3.573412163491835880e-01
5.355000000000000000e+03 2.810098831028723154e+00 8.438697232789808211e+00 5.068505348287993123e-02 4.949504334392068605e-02 3.575811465339922002e-01
5.360000000000000000e+03 2.813156213929465910e+00 8.434337135912718608e+00 5.083036512049818323e-02 4.963440421887866522e-02 3.578209043469264272e-01
5.365000000000000000e+03 2.816214792098126196e+00 8.429988479396664403e+00 5.097596485121927423e-02 4.977402863710938402e-02 3.580604903229266944e-01
5.370000000000000000e+03 2.819274563612526485e+00 8.425651220323603141e+00 5.112185299144642731e-02 4.991391683463747286e-02 3.582999049956107629e-01
5.375000000000000000e+03 2.822335526552611107e+00 8.421325315979020232e+00 5.126802985764360859e-02 5.005406904735231616e-02 3.585391488972736740e-01
5.380000000000000000e+03 2.825397679000472451e+00 8.417010723850708587e+00 5.141449576633699142e-02 5.019448551100907929e-02 3.587782225588888041e-01
5.385000000000000000e+03 2.828461019040326097e+00 8.412707401627587345e+00 5.156125103411415139e-02 5.033516646122772331e-02 3.590171265101079201e-01
5.390000000000000000e+03 2.831525544758523250e+00 8.408415307198572108e+00 5.170829597762454516e-02 5.047611213349310899e-02 3.592558612792617345e-01
5.395000000000000000e+03 2.834591254243509439e+00 8.404134398651414983e+00 5.185563091357840715e-02 5.061732276315355356e-02 3.594944273933604051e-01
5.400000000000000000e+03 2.837658145585859160e+00 8.399864634271517971e+00 5.200325615874799162e-02 5.075879858542187845e-02 3.597328253780941454e-01
5.405000000000000000e+03 2.840726216878224797e+00 8.395605972540865380e+00 5.215117202996596979e-02 5.090053983537335541e-02 3.599710557578336689e-01
5.410000000000000000e+03 2.843795466215371270e+00 8.391358372136815902e+00 5.229937884412712290e-02 5.104254674794717062e-02 3.602091190556309108e-01
5.415000000000000000e+03 2.846865891694145834e+00 8.387121791931019033e+00 5.244787691818688508e-02 5.118481955794467603e-02 3.604470157932194163e-01
5.420000000000000000e+03 2.849937491413468749e+00 8.382896190988303076e+00 5.259666656916182209e-02 5.132735850002949352e-02 3.606847464910148959e-01
5.425000000000000000e+03 2.853010263474342612e+00 8.378681528565538272e+00 5.274574811412961750e-02 5.147016380872728586e-02 3.609223116681162247e-01
5.430000000000000000e+03 2.856084205979834589e+00 8.374477764110567435e+00 5.289512187022895467e-02 5.161323571842520164e-02 3.611597118423057196e-01
5.435000000000000000e+03 2.859159317035063097e+00 8.370284857261086842e+00 5.304478815465887842e-02 5.175657446337098011e-02 3.613969475300499168e-01
5.440000000000000000e+03 2.862235594747215561e+00 8.366102767843567989e+00 5.319474728468015501e-02 5.190018027767411002e-02 3.616340192465004599e-01
5.445000000000000000e+03 2.865313037225506232e+00 8.361931455872205987e+00 5.334499957761301703e-02 5.204405339530308178e-02 3.618709275054944330e-01
5.450000000000000000e+03 2.868391642581204604e+00 8.357770881547782693e+00 5.349554535083946710e-02 5.218819405008750384e-02 3.621076728195554706e-01
5.455000000000000000e+03 2.871471408927610547e+00 8.353621005256666621e+00 5.364638492180170276e-02 5.233260247571615981e-02 3.623442556998943131e-01
5.460000000000000000e+03 2.874552334380040097e+00 8.349481787569727587e+00 5.379751860800208174e-02 5.247727890573672394e-02 3.625806766564094730e-01
5.465000000000000000e+03 2.877634417055844107e+00 8.345353189241279779e+00 5.394894672700403099e-02 5.262222357355626073e-02 3.628169361976882334e-01
5.470000000000000000e+03 2.880717655074376715e+00 8.341235171208056798e+00 5.410066959643083928e-02 5.276743671243981637e-02 3.630530348310075373e-01
5.475000000000000000e+03 2.883802046557002008e+00 8.337127694588168936e+00 5.425268753396629562e-02 5.291291855551071704e-02 3.632889730623344304e-01
5.480000000000000000e+03 2.886887589627094020e+00 8.333030720680053349e+00 5.440500085735477248e-02 5.305866933575018735e-02 3.635247513963272281e-01
5.485000000000000000e+03 2.889974282410004314e+00 8.328944210961495287e+00 5.455760988440009479e-02 5.320468928599621228e-02 3.637603703363362362e-01
5.490000000000000000e+03 2.893062123033076194e+00 8.324868127088585368e+00 5.471051493296633789e-02 5.335097863894373155e-02 3.639958303844047505e-01
5.495000000000000000e+03 2.896151109625657583e+00 8.320802430894669754e+00 5.486371632097870182e-02 5.349753762714536121e-02 3.642311320412698894e-01
5.500000000000000000e+03 2.899241240319035740e+00 8.316747084389456646e+00 5.501721436642038193e-02 5.364436648300795890e-02 3.644662758063634822e-01
5.505000000000000000e+03 2.902332513246498547e+00 8.312702049757904277e+00 5.517100938733630888e-02 5.379146543879591291e-02 3.647012621778129016e-01
5.510000000000000000e+03 2.905424926543278552e+00 8.308667289359313202e+00 5.532510170183010945e-02 5.393883472662792250e-02 3.649360916524424514e-01
5.515000000000000000e+03 2.908518478346576508e+00 8.304642765726290676e+00 5.547949162806585510e-02 5.408647457847843426e-02 3.651707647257736999e-01
5.520000000000000000e+03 2.911613166795535168e+00 8.300628441563826954e+00 5.563417948426663956e-02 5.423438522617583107e-02 3.654052818920271450e-01
5.525000000000000000e+03 2.914708990031247726e+00 8.296624279748277431e+00 5.578916558871554326e-02 5.438256690140313293e-02 3.656396436441225473e-01
5.530000000000000000e+03 2.917805946196742273e+00 8.292630243326430062e+00 5.594445025975514768e-02 5.453101983569717121e-02 3.658738504736804842e-01
5.535000000000000000e+03 2.920904033436988900e+00 8.288646295514537243e+00 5.610003381578767406e-02 5.467974426044847763e-02 3.661079028710232386e-01
5.540000000000000000e+03 2.924003249898877499e+00 8.284672399697367240e+00 5.625591657527448386e-02 5.482874040690038225e-02 3.663418013251755756e-01
5.545000000000000000e+03 2.927103593731220421e+00 8.280708519427266268e+00 5.641209885673639096e-02 5.497800850614910362e-02 3.665755463238662415e-01
5.550000000000000000e+03 2.930205063084740491e+00 8.276754618423224130e+00 5.656858097875329394e-02 5.512754878914293694e-02 3.668091383535289074e-01
5.555000000000000000e+03 2.933307656112089656e+00 8.272810660569909658e+00 5.672536325996513362e-02 5.527736148668305205e-02 3.670425778993029464e-01
5.560000000000000000e+03 2.936411370967791257e+00 8.268876609916816278e+00 5.688244601906942977e-02 5.542744682942068318e-02 3.672758654450349880e-01
5.565000000000000000e+03 2.939516205808300864e+00 8.264952430677253048e+00 5.703982957482438276e-02 5.557780504785975184e-02 3.675090014732799726e-01
5.570000000000000000e+03 2.942622158791943221e+00 8.261038087227513316e+00 5.719751424604625767e-02 5.572843637235423697e-02 3.677419864653020398e-01
5.575000000000000000e+03 2.945729228078938444e+00 8.257133544105906608e+00 5.735550035161059157e-02 5.587934103310872314e-02 3.679748209010759719e-01
5.580000000000000000e+03 2.948837411831379374e+00 8.253238766011913086e+00 5.751378821045124989e-02 5.603051926017751233e-02 3.682075052592884146e-01
5.585000000000000000e+03 2.951946708213252002e+00 8.249353717805233188e+00 5.767237814156191134e-02 5.618197128346541502e-02 3.684400400173387102e-01
5.590000000000000000e+03 2.955057115390397726e+00 8.245478364504933211e+00 5.783127046399424986e-02 5.633369733272593216e-02 3.686724256513403408e-01
5.595000000000000000e+03 2.958168631530519121e+00 8.241612671288564229e+00 5.799046549685840657e-02 5.648569763756126905e-02 3.689046626361222603e-01
5.600000000000000000e+03 2.961281254803192375e+00 8.237756603491257934e+00 5.814996355932399580e-02 5.663797242742297372e-02 3.691367514452299492e-01
5.605000000000000000e+03 2.964394983379828652e+00 8.233910126604895297e+00 5.830976497061799574e-02 5.679052193160969569e-02 3.693686925509267471e-01
5.610000000000000000e+03 2.967509815433703402e+00 8.230073206277189968e+00 5.846987005002698967e-02 5.694334637926888598e-02 3.696004864241952403e-01
5.615000000000000000e+03 2.970625749139928384e+00 8.226245808310867602e+00 5.863027911689536881e-02 5.709644599939489584e-02 3.698321335347381500e-01
5.620000000000000000e+03 2.973742782675450780e+00 8.222427898662795442e+00 5.879099249062592902e-02 5.724982102082916413e-02 3.700636343509801085e-01
5.625000000000000000e+03 2.976860914219038978e+00 8.218619443443152761e+00 5.895201049067929494e-02 5.740347167225925279e-02 3.702949893400685477e-01
5.630000000000000000e+03 2.979980141951313222e+00 8.214820408914542682e+00 5.911333343657538403e-02 5.755739818222010279e-02 3.705261989678755308e-01
5.635000000000000000e+03 2.983100464054693646e+00 8.211030761491203478e+00 5.927496164789120003e-02 5.771160077909157776e-02 3.707572636989983628e-01
5.640000000000000000e+03 2.986221878713425149e+00 8.207250467738139932e+00 5.943689544426227628e-02 5.786607969109929667e-02 3.709881839967618111e-01
5.645000000000000000e+03 2.989344384113558295e+00 8.203479494370327529e+00 5.959913514538207197e-02 5.802083514631409256e-02 3.712189603232186053e-01
5.650000000000000000e+03 2.992467978442951537e+00 8.199717808251859807e+00 5.976168107100193749e-02 5.817586737265145053e-02 3.714495931391514905e-01
5.655000000000000000e+03 2.995592659891261000e+00 8.195965376395156099e+00 5.992453354093087159e-02 5.833117659787092485e-02 3.716800829040741716e-01
5.660000000000000000e+03 2.998718426649936042e+00 8.192222165960130198e+00 6.008769287503587520e-02 5.848676304957629163e-02 3.719104300762330340e-01
5.665000000000000000e+03 3.001845276912228133e+00 8.188488144253410539e+00 6.025115939324200004e-02 5.864262695521520186e-02 3.721406351126083090e-01
5.670000000000000000e+03 3.004973208873165103e+00 8.184763278727492875e+00 6.041493341553177271e-02 5.879876854207829323e-02 3.723706984689155175e-01
5.675000000000000000e+03 3.008102220729542697e+00 8.181047536980015522e+00 6.057901526194445913e-02 5.895518803729823953e-02 3.726006205996072462e-01
5.680000000000000000e+03 3.011232310679954338e+00 8.177340886752890725e+00 6.074340525257827805e-02 5.911188566785152004e-02 3.728304019578739803e-01
5.685000000000000000e+03 3.014363476924740937e+00 8.173643295931585229e+00 6.090810370758765330e-02 5.926886166055537336e-02 3.730600429956462127e-01
5.690000000000000000e+03 3.017495717666031751e+00 8.169954732544290721e+00 6.107311094718545497e-02 5.942611624206983051e-02 3.732895441635954437e-01
5.695000000000000000e+03 3.020629031107692430e+00 8.166275164761188421e+00 6.123842729164126475e-02 5.958364963889549448e-02 3.735189059111359011e-01
5.700000000000000000e+03 3.023763415455353432e+00 8.162604560893642613e+00 6.140405306128159102e-02 5.974146207737365127e-02 3.737481286864259844e-01
5.705000000000000000e+03 3.026898868916403362e+00 8.158942889393459907e+00 6.156998857649116641e-02 5.989955378368710948e-02 3.739772129363697073e-01
5.710000000000000000e+03 3.030035389699961890e+00 8.155290118852123626e+00 6.173623415771106737e-02 6.005792498385787576e-02 3.742061591066183635e-01
5.715000000000000000e+03 3.033172976016894395e+00 8.151646218000031752e+00 6.190279012543945664e-02 6.021657590374793201e-02 3.744349676415719141e-01
5.720000000000000000e+03 3.036311626079804871e+00 8.148011155705750852e+00 6.206965680023188159e-02 6.037550676905895780e-02 3.746636389843803761e-01
5.725000000000000000e+03 3.039451338103028810e+00 8.144384900975270014e+00 6.223683450270085099e-02 6.053471780533159485e-02 3.748921735769458752e-01
5.730000000000000000e+03 3.042592110302625219e+00 8.140767422951249443e+00 6.240432355351535620e-02 6.069420923794476008e-02 3.751205718599237016e-01
5.735000000000000000e+03 3.045733940896362846e+00 8.137158690912320580e+00 6.257212427340098915e-02 6.085398129211540275e-02 3.753488342727240856e-01
5.740000000000000000e+03 3.048876828103753933e+00 8.133558674272293842e+00 6.274023698314117048e-02 6.101403419289931629e-02 3.755769612535139745e-01
5.745000000000000000e+03 3.052020770145989381e+00 8.129967342579492495e+00 6.290866200357445037e-02 6.117436816518843218e-02 3.758049532392180314e-01
5.750000000000000000e+03 3.055165765246001364e+00 8.126384665515976380e+00 6.307739965559752693e-02 6.133498343371305422e-02 3.760328106655210223e-01
5.755000000000000000e+03 3.058311811628402932e+00 8.122810612896868676e+00 6.324645026016278981e-02 6.149588022303947854e-02 3.762605339668687598e-01
5.760000000000000000e+03 3.061458907519507555e+00 8.119245154669618714e+00 6.341581413827895863e-02 6.165705875757009069e-02 3.764881235764701572e-01
5.765000000000000000e+03 3.064607051147323791e+00 8.115688260913303864e+00 6.358549161101152702e-02 6.181851926154375426e-02 3.767155799262984495e-01
5.770000000000000000e+03 3.067756240741560170e+00 8.112139901837906564e+00 6.375548299948252673e-02 6.198026195903477698e-02 3.769429034470933582e-01
5.775000000000000000e+03 3.070906474533589670e+00 8.108600047783644627e+00 6.392578862486970881e-02 6.214228707395231394e-02 3.771700945683622574e-01
5.780000000000000000e+03 3.074057750756484353e+00 8.105068669220237609e+00 6.409640880840745958e-02 6.230459483004065213e-02 3.773971537183822278e-01
5.785000000000000000e+03 3.077210067644984282e+00 8.101545736746249560e+00 6.426734387138643978e-02 6.246718545087860675e-02 3.776240813242012773e-01
5.790000000000000000e+03 3.080363423435497072e+00 8.098031221088390907e+00 6.443859413515283519e-02 6.263005915987845951e-02 3.778508778116405065e-01
5.795000000000000000e+03 3.083517816366097897e+00 8.094525093100832791e+00 6.461015992110916151e-02 6.279321618028639584e-02 3.780775436052952743e-01
5.800000000000000000e+03 3.086673244676529926e+00 8.091027323764532042e+00 6.478204155071405623e-02 6.295665673518210936e-02 3.783040791285375848e-01
5.805000000000000000e+03 3.089829706608202109e+00 8.087537884186534853e+00 6.495423934548230638e-02 6.312038104747833001e-02 3.785304848035170866e-01
5.810000000000000000e+03 3.092987200404147874e+00 8.084056745599376370e+00 6.512675362698337744e-02 6.328438933991922810e-02 3.787567610511629601e-01
5.815000000000000000e+03 3.096145724309085079e+00 8.080583879360309751e+00 6.529958471684386978e-02 6.344868183508234338e-02 3.789829082911861935e-01
5.820000000000000000e+03 3.099305276569353396e+00 8.077119256950743065e+00 6.547273293674522876e-02 6.361325875537618413e-02 3.792089269420804154e-01
5.825000000000000000e+03 3.102465855432942732e+00 8.073662849975528744e+00 6.564619860842482724e-02 6.377812032304089329e-02 3.794348174211244484e-01
5.830000000000000000e+03 3.105627459149473690e+00 8.070214630162327651e+00 6.581998205367539656e-02 6.394326676014727706e-02 3.796605801443834194e-01
5.835000000000000000e+03 3.108790085970207784e+00 8.066774569360953606e+00 6.599408359434549842e-02 6.410869828859715180e-02 3.798862155267109797e-01
5.840000000000000000e+03 3.111953734148035444e+00 8.063342639542717905e+00 6.616850355233927505e-02 6.427441513012256691e-02 3.801117239817506932e-01
5.845000000000000000e+03 3.115118401937467141e+00 8.059918812799811150e+00 6.634324224961597738e-02 6.444041750628519416e-02 3.803371059219382011e-01
5.850000000000000000e+03 3.118284087594624499e+00 8.056503061344679750e+00 6.651830000818972910e-02 6.460670563847570325e-02 3.805623617585026652e-01
5.855000000000000000e+03 3.121450789377257173e+00 8.053095357509338470e+00 6.669367715013045650e-02 6.477327974791428911e-02 3.807874919014686554e-01
5.860000000000000000e+03 3.124618505544729974e+00 8.049695673744784230e+00 6.686937399756361089e-02 6.494014005565018621e-02 3.810124967596579260e-01
5.865000000000000000e+03 3.127787234358000212e+00 8.046303982620365502e+00 6.704539087266865593e-02 6.510728678255989221e-02 3.812373767406914138e-01
5.870000000000000000e+03 3.130956974079644350e+00 8.042920256823151703e+00 6.722172809768144075e-02 6.527472014934897204e-02 3.814621322509907375e-01
5.875000000000000000e+03 3.134127722973833130e+00 8.039544469157309692e+00 6.739838599489214599e-02 6.544244037654996238e-02 3.816867636957800847e-01
5.880000000000000000e+03 3.137299479306325800e+00 8.036176592543526453e+00 6.757536488664536711e-02 6.561044768452202469e-02 3.819112714790882102e-01
5.885000000000000000e+03 3.140472241344489213e+00 8.032816600018348296e+00 6.775266509534186299e-02 6.577874229345231916e-02 3.821356560037500461e-01
5.890000000000000000e+03 3.143646007357264516e+00 8.029464464733614193e+00 6.793028694343604401e-02 6.594732442335317357e-02 3.823599176714087555e-01
5.895000000000000000e+03 3.146820775615179144e+00 8.026120159955844713e+00 6.810823075343744315e-02 6.611619429406340176e-02 3.825840568825173982e-01
5.900000000000000000e+03 3.149996544390348152e+00 8.022783659065629180e+00 6.828649684791070207e-02 6.628535212524785947e-02 3.828080740363407619e-01
5.905000000000000000e+03 3.153173311956452896e+00 8.019454935557041253e+00 6.846508554947422498e-02 6.645479813639564026e-02 3.830319695309573613e-01
5.910000000000000000e+03 3.156351076588757021e+00 8.016133963037043841e+00 6.864399718080203827e-02 6.662453254682186576e-02 3.832557437632612696e-01
5.915000000000000000e+03 3.159529836564085592e+00 8.012820715224927781e+00 6.882323206462186149e-02 6.679455557566528479e-02 3.834793971289637282e-01
5.920000000000000000e+03 3.162709590160824202e+00 8.009515165951684779e+00 6.900279052371566246e-02 6.696486744188855089e-02 3.837029300225954787e-01
5.925000000000000000e+03 3.165890335658941179e+00 8.006217289159444306e+00 6.918267288092119771e-02 6.713546836427941589e-02 3.839263428375081499e-01
5.930000000000000000e+03 3.169072071339926300e+00 8.002927058900926482e+00 6.936287945912834874e-02 6.730635856144684404e-02 3.841496359658766457e-01
5.935000000000000000e+03 3.172254795486859624e+00 7.999644449338814134e+00 6.954341058128335473e-02 6.747753825182473131e-02 3.843728097987005876e-01
5.940000000000000000e+03 3.175438506384343107e+00 7.996369434745242089e+00 6.972426657038514886e-02 6.764900765366813062e-02 3.845958647258063690e-01
5.945000000000000000e+03 3.178623202318548113e+00 7.993101989501165683e+00 6.990544774948805051e-02 6.782076698505550005e-02 3.848188011358492089e-01
5.950000000000000000e+03 3.181808881577157688e+00 7.989842088095879369e+00 7.008695444169864286e-02 6.799281646388531664e-02 3.850416194163147621e-01
5.955000000000000000e+03 3.184995542449432726e+00 7.986589705126361238e+00 7.026878697017985287e-02 6.816515630787976787e-02 3.852643199535213947e-01
5.960000000000000000e+03 3.188183183226130701e+00 7.983344815296818275e+00 7.045094565814630228e-02 6.833778673457992225e-02 3.854869031326217943e-01
5.965000000000000000e+03 3.191371802199563401e+00 7.980107393418053086e+00 7.063343082886790192e-02 6.851070796134876850e-02 3.857093693376050236e-01
5.970000000000000000e+03 3.194561397663570723e+00 7.976877414406950528e+00 7.081624280566799212e-02 6.868392020536931430e-02 3.859317189512984081e-01
5.975000000000000000e+03 3.197751967913502469e+00 7.973654853285936817e+00 7.099938191192353698e-02 6.885742368364426713e-02 3.861539523553696451e-01
5.980000000000000000e+03 3.200943511246242767e+00 7.970439685182414635e+00 7.118284847106523539e-02 6.903121861299585382e-02 3.863760699303283030e-01
