#[MATERIAL DEFINITION FOR MC-GPU: interaction mean free path and sampling data from PENELOPE 2006]
#[MATERIAL NAME]
# air(0.78:N_0.21:O_0.1:Ar)
#[NOMINAL DENSITY (g/cm^3)]
# 0.0013
#[NUMBER OF DATA VALUES]
# 24001
#[MEAN FREE PATHS (cm)]
#[Energy (eV)     | Rayleigh        | Compton         | Photoelectric   | TOTAL (+pair prod) (cm) | Rayleigh: max cumul prob F^2]
5.000000000000000000e+03 1.196479708606560052e+03 7.763875779506134677e+03 1.010881672245666785e+01 1.001119920697330201e+01 3.042166652802961724e-01
5.005000000000000000e+03 1.197773519873915575e+03 7.758277003994172446e+03 1.013750711962938844e+01 1.003941902486212712e+01 3.044636111060603501e-01
5.010000000000000000e+03 1.199068102597327425e+03 7.752693457628083706e+03 1.016625236907549734e+01 1.006769188098430767e+01 3.047103689419793926e-01
5.015000000000000000e+03 1.200363454476363586e+03 7.747125084955794591e+03 1.019505252534345097e+01 1.009601782445579055e+01 3.049569392965379988e-01
5.020000000000000000e+03 1.201659573213421254e+03 7.741571830786469036e+03 1.022390764298521404e+01 1.012439690438352358e+01 3.052033226772996044e-01
5.025000000000000000e+03 1.202956456513713420e+03 7.736033640189094513e+03 1.025281777655596116e+01 1.015282916986515183e+01 3.054495195909031069e-01
5.030000000000000000e+03 1.204254102085267732e+03 7.730510458490964993e+03 1.028178298061449958e+01 1.018131466998940127e+01 3.056955305430598124e-01
5.035000000000000000e+03 1.205552507638905581e+03 7.725002231276320344e+03 1.031080330972289083e+01 1.020985345383568799e+01 3.059413560385511044e-01
5.040000000000000000e+03 1.206851670888236185e+03 7.719508904384861125e+03 1.033987881844675627e+01 1.023844557047439707e+01 3.061869965812254457e-01
5.045000000000000000e+03 1.208151589549636810e+03 7.714030423910382524e+03 1.036900956135493246e+01 1.026709106896651846e+01 3.064324526739955479e-01
5.050000000000000000e+03 1.209452261342247994e+03 7.708566736199337356e+03 1.039819559301970209e+01 1.029578999836386721e+01 3.066777248188357619e-01
5.055000000000000000e+03 1.210753683987963313e+03 7.703117787849419074e+03 1.042743696801682418e+01 1.032454240770906928e+01 3.069228135167795801e-01
5.060000000000000000e+03 1.212055855211409607e+03 7.697683525708225716e+03 1.045673374092519836e+01 1.035334834603521514e+01 3.071677192679170276e-01
5.065000000000000000e+03 1.213358772739945380e+03 7.692263896871813813e+03 1.048608596632731249e+01 1.038220786236630921e+01 3.074124425713918862e-01
5.070000000000000000e+03 1.214662434303637838e+03 7.686858848683375072e+03 1.051549369880879681e+01 1.041112100571675469e+01 3.076569839253994187e-01
5.075000000000000000e+03 1.215966837635264028e+03 7.681468328731837573e+03 1.054495699295872591e+01 1.044008782509167155e+01 3.079013438271838154e-01
5.080000000000000000e+03 1.217271980470292647e+03 7.676092284850516080e+03 1.057447590336951571e+01 1.046910836948675616e+01 3.081455227730358626e-01
5.085000000000000000e+03 1.218577860546871307e+03 7.670730665115772354e+03 1.060405048463682043e+01 1.049818268788817299e+01 3.083895212582904444e-01
5.090000000000000000e+03 1.219884475605819034e+03 7.665383417845669101e+03 1.063368079135966049e+01 1.052731082927263095e+01 3.086333397773243781e-01
5.095000000000000000e+03 1.221191823390611944e+03 7.660050491598639383e+03 1.066336687814022888e+01 1.055649284260719512e+01 3.088769788235539715e-01
5.100000000000000000e+03 1.222499901647379374e+03 7.654731835172136925e+03 1.069310879958420024e+01 1.058572877684956381e+01 3.091204388894328026e-01
5.105000000000000000e+03 1.223808708124883196e+03 7.649427397601358280e+03 1.072290661030039871e+01 1.061501868094770096e+01 3.093637204664497764e-01
5.110000000000000000e+03 1.225118240574510992e+03 7.644137128157914049e+03 1.075276036490090803e+01 1.064436260383996746e+01 3.096068240451264608e-01
5.115000000000000000e+03 1.226428496750271961e+03 7.638860976348509212e+03 1.078267011800120123e+01 1.067376059445516923e+01 3.098497501150153655e-01
5.120000000000000000e+03 1.227739474408773049e+03 7.633598891913691659e+03 1.081263592421985642e+01 1.070321270171230488e+01 3.100924991646978324e-01
5.125000000000000000e+03 1.229051171309216443e+03 7.628350824826537973e+03 1.084265783817876994e+01 1.073271897452071855e+01 3.103350716817817045e-01
5.130000000000000000e+03 1.230363585213386841e+03 7.623116725291391958e+03 1.087273591450297339e+01 1.076227946177992045e+01 3.105774681528997161e-01
5.135000000000000000e+03 1.231676713885646905e+03 7.617896543742557697e+03 1.090287020782091076e+01 1.079189421237983026e+01 3.108196890637072718e-01
5.140000000000000000e+03 1.232990555092915429e+03 7.612690230843091740e+03 1.093306077276409738e+01 1.082156327520040762e+01 3.110617348988805597e-01
5.145000000000000000e+03 1.234305106604659386e+03 7.607497737483535275e+03 1.096330766396717138e+01 1.085128669911170363e+01 3.113036061421147194e-01
5.150000000000000000e+03 1.235620366192899155e+03 7.602319014780604448e+03 1.099361093606827211e+01 1.088106453297419662e+01 3.115453032761220098e-01
5.155000000000000000e+03 1.236936331632171687e+03 7.597154014076059866e+03 1.102397064370838820e+01 1.091089682563812069e+01 3.117868267826299777e-01
5.160000000000000000e+03 1.238253000699542326e+03 7.592002686935384190e+03 1.105438684153186557e+01 1.094078362594396836e+01 3.120281771423794592e-01
5.165000000000000000e+03 1.239570371174584352e+03 7.586864985146597064e+03 1.108485958418621387e+01 1.097072498272225083e+01 3.122693548351233028e-01
5.170000000000000000e+03 1.240888440839370560e+03 7.581740860719038210e+03 1.111538892632206377e+01 1.100072094479345886e+01 3.125103603396243157e-01
5.175000000000000000e+03 1.242207207478464625e+03 7.576630265882144158e+03 1.114597492259322564e+01 1.103077156096807521e+01 3.127511941336538759e-01
5.180000000000000000e+03 1.243526668878905639e+03 7.571533153084269543e+03 1.117661762765659539e+01 1.106087688004646807e+01 3.129918566939898783e-01
5.185000000000000000e+03 1.244846822830204474e+03 7.566449474991469287e+03 1.120731709617221661e+01 1.109103695081894614e+01 3.132323484964157356e-01
5.190000000000000000e+03 1.246167667124336504e+03 7.561379184486300801e+03 1.123807338280340851e+01 1.112125182206583673e+01 3.134726700157182133e-01
5.195000000000000000e+03 1.247489199555718187e+03 7.556322234666697113e+03 1.126888654221639818e+01 1.115152154255711459e+01 3.137128217256863749e-01
5.200000000000000000e+03 1.248811417921208886e+03 7.551278578844738149e+03 1.129975662908058531e+01 1.118184616105263984e+01 3.139528040991100832e-01
5.205000000000000000e+03 1.250134320020097221e+03 7.546248170545509311e+03 1.133068369806851017e+01 1.121222572630210834e+01 3.141926176077781130e-01
5.210000000000000000e+03 1.251457903654095617e+03 7.541230963505935506e+03 1.136166780385581454e+01 1.124266028704498055e+01 3.144322627224772071e-01
5.215000000000000000e+03 1.252782166627321430e+03 7.536226911673647010e+03 1.139270900112110674e+01 1.127314989201032702e+01 3.146717399129906334e-01
5.220000000000000000e+03 1.254107106746293539e+03 7.531235969205805304e+03 1.142380734454621383e+01 1.130369458991705756e+01 3.149110496480965193e-01
5.225000000000000000e+03 1.255432721819923017e+03 7.526258090467988040e+03 1.145496288881588498e+01 1.133429442947363519e+01 3.151501923955669637e-01
5.230000000000000000e+03 1.256759009659504045e+03 7.521293230033043983e+03 1.148617568861807214e+01 1.136494945937825918e+01 3.153891686221664825e-01
5.235000000000000000e+03 1.258085968078697533e+03 7.516341342679983427e+03 1.151744579864361562e+01 1.139565972831861274e+01 3.156279787936509540e-01
5.240000000000000000e+03 1.259413594893531354e+03 7.511402383392850425e+03 1.154877327358648564e+01 1.142642528497202292e+01 3.158666233747662311e-01
5.245000000000000000e+03 1.260741887922386468e+03 7.506476307359590464e+03 1.158015816814372023e+01 1.145724617800540202e+01 3.161051028292469200e-01
5.250000000000000000e+03 1.262070844985982376e+03 7.501563069971016375e+03 1.161160053701521910e+01 1.148812245607502369e+01 3.163434176198157699e-01
5.255000000000000000e+03 1.263400463907380754e+03 7.496662626819611432e+03 1.164310043490411317e+01 1.151905416782684277e+01 3.165815682081816740e-01
5.260000000000000000e+03 1.264730742511958397e+03 7.491774933698537097e+03 1.167465791651630980e+01 1.155004136189605823e+01 3.168195550550393924e-01
5.265000000000000000e+03 1.266061678627415859e+03 7.486899946600477961e+03 1.170627303656080898e+01 1.158108408690736013e+01 3.170573786200681643e-01
5.270000000000000000e+03 1.267393270083756533e+03 7.482037621716594003e+03 1.173794584974961275e+01 1.161218239147486386e+01 3.172950393619305420e-01
5.275000000000000000e+03 1.268725514713284838e+03 7.477187915435441028e+03 1.176967641079771454e+01 1.164333632420204090e+01 3.175325377382717806e-01
5.280000000000000000e+03 1.270058410350589156e+03 7.472350784341917461e+03 1.180146477442297481e+01 1.167454593368159088e+01 3.177698742057186720e-01
5.285000000000000000e+03 1.271391954832542524e+03 7.467526185216187514e+03 1.183331099534635555e+01 1.170581126849564590e+01 3.180070492198784349e-01
5.290000000000000000e+03 1.272726145998280117e+03 7.462714075032659821e+03 1.186521512829157210e+01 1.173713237721541169e+01 3.182440632353381593e-01
5.295000000000000000e+03 1.274060981689210166e+03 7.457914410958893313e+03 1.189717722798551236e+01 1.176850930840153175e+01 3.184809167056638635e-01
5.300000000000000000e+03 1.275396459748981442e+03 7.453127150354620426e+03 1.192919734915772700e+01 1.179994211060361131e+01 3.187176100833994941e-01
5.305000000000000000e+03 1.276732578023500082e+03 7.448352250770640239e+03 1.196127554654104230e+01 1.183143083236074489e+01 3.189541438200663159e-01
5.310000000000000000e+03 1.278069334360891389e+03 7.443589669947879884e+03 1.199341187487074301e+01 1.186297552220072582e+01 3.191905183661620238e-01
5.315000000000000000e+03 1.279406726611523936e+03 7.438839365816269492e+03 1.202560638888549249e+01 1.189457622864091668e+01 3.194267341711599095e-01
5.320000000000000000e+03 1.280744752627968637e+03 7.434101296493840891e+03 1.205785914332643749e+01 1.192623300018733801e+01 3.196627916835084737e-01
5.325000000000000000e+03 1.282083410265018983e+03 7.429375420285613473e+03 1.209017019293796835e+01 1.195794588533540903e+01 3.198986913506303709e-01
5.330000000000000000e+03 1.283422697379656711e+03 7.424661695682677419e+03 1.212253959246704405e+01 1.198971493256924958e+01 3.201344336189220208e-01
5.335000000000000000e+03 1.284762611831064532e+03 7.419960081361135053e+03 1.215496739666369308e+01 1.202154019036216326e+01 3.203700189337525539e-01
5.340000000000000000e+03 1.286103151480608858e+03 7.415270536181142234e+03 1.218745366028077548e+01 1.205342170717635142e+01 3.206054477394639224e-01
5.345000000000000000e+03 1.287444314191820467e+03 7.410593019185936100e+03 1.221999843807388864e+01 1.208535953146283504e+01 3.208407204793696788e-01
5.350000000000000000e+03 1.288786097830412245e+03 7.405927489600796434e+03 1.225260178480171547e+01 1.211735371166174957e+01 3.210758375957546429e-01
5.355000000000000000e+03 1.290128500264238937e+03 7.401273906832172543e+03 1.228526375522540448e+01 1.214940429620171791e+01 3.213107995298743469e-01
5.360000000000000000e+03 1.291471519363321931e+03 7.396632230466595502e+03 1.231798440410935491e+01 1.218151133350060533e+01 3.215456067219548131e-01
5.365000000000000000e+03 1.292815152999809698e+03 7.392002420269831418e+03 1.235076378622041560e+01 1.221367487196469881e+01 3.217802596111915547e-01
5.370000000000000000e+03 1.294159399047996430e+03 7.387384436185830964e+03 1.238360195632855465e+01 1.224589495998935540e+01 3.220147586357496872e-01
5.375000000000000000e+03 1.295504255384291810e+03 7.382778238335860806e+03 1.241649896920627150e+01 1.227817164595839472e+01 3.222491042327630395e-01
5.380000000000000000e+03 1.296849719887225319e+03 7.378183787017510440e+03 1.244945487962900899e+01 1.231050497824446666e+01 3.224832968383340992e-01
5.385000000000000000e+03 1.298195790437439882e+03 7.373601042703752682e+03 1.248246974237494555e+01 1.234289500520885596e+01 3.227173368875334014e-01
5.390000000000000000e+03 1.299542464917677762e+03 7.369029966042028718e+03 1.251554361222514267e+01 1.237534177520157641e+01 3.229512248143995845e-01
5.395000000000000000e+03 1.300889741212769877e+03 7.364470517853324964e+03 1.254867654396325705e+01 1.240784533656107236e+01 3.231849610519383353e-01
5.400000000000000000e+03 1.302237617209640121e+03 7.359922659131229921e+03 1.258186859237587818e+01 1.244040573761454027e+01 3.234185460321229444e-01
5.405000000000000000e+03 1.303586090797277848e+03 7.355386351041053786e+03 1.261511981225213397e+01 1.247302302667750240e+01 3.236519801858934731e-01
5.410000000000000000e+03 1.304935159866753565e+03 7.350861554918864385e+03 1.264843025838409751e+01 1.250569725205417981e+01 3.238852639431566982e-01
5.415000000000000000e+03 1.306284822311195057e+03 7.346348232270632252e+03 1.268179998556649757e+01 1.253842846203720462e+01 3.241183977327858901e-01
5.420000000000000000e+03 1.307635076025780336e+03 7.341846344771305667e+03 1.271522904859672032e+01 1.257121670490759335e+01 3.243513819826205902e-01
5.425000000000000000e+03 1.308985918907737414e+03 7.337355854263918445e+03 1.274871750227501188e+01 1.260406202893489258e+01 3.245842171194665005e-01
5.430000000000000000e+03 1.310337348856333165e+03 7.332876722758705000e+03 1.278226540140423673e+01 1.263696448237698000e+01 3.248169035690951501e-01
5.435000000000000000e+03 1.311689363772858997e+03 7.328408912432225407e+03 1.281587280078991142e+01 1.266992411348000047e+01 3.250494417562441729e-01
5.440000000000000000e+03 1.313041961560638811e+03 7.323952385626449541e+03 1.284953975524039471e+01 1.270294097047858450e+01 3.252818321046166417e-01
5.445000000000000000e+03 1.314395140124999671e+03 7.319507104847951268e+03 1.288326631956651980e+01 1.273601510159545214e+01 3.255140750368814562e-01
5.450000000000000000e+03 1.315748897373288855e+03 7.315073032766961660e+03 1.291705254858199226e+01 1.276914655504175400e+01 3.257461709746731771e-01
5.455000000000000000e+03 1.317103231214846119e+03 7.310650132216561360e+03 1.295089849710310226e+01 1.280233537901680840e+01 3.259781203385917481e-01
5.460000000000000000e+03 1.318458139561004145e+03 7.306238366191812020e+03 1.298480421994874234e+01 1.283558162170805517e+01 3.262099235482028292e-01
5.465000000000000000e+03 1.319813620325086504e+03 7.301837697848882272e+03 1.301876977194057794e+01 1.286888533129122969e+01 3.264415810220375191e-01
5.470000000000000000e+03 1.321169671422388319e+03 7.297448090504220090e+03 1.305279520790276315e+01 1.290224655593003611e+01 3.266730931775925773e-01
5.475000000000000000e+03 1.322526290770178548e+03 7.293069507633708781e+03 1.308688058266222853e+01 1.293566534377643151e+01 3.269044604313304236e-01
5.480000000000000000e+03 1.323883476287693611e+03 7.288701912871808418e+03 1.312102595104851765e+01 1.296914174297041988e+01 3.271356831986792502e-01
5.485000000000000000e+03 1.325241225896116475e+03 7.284345270010767308e+03 1.315523136789364678e+01 1.300267580163990466e+01 3.273667618940329094e-01
5.490000000000000000e+03 1.326599537518581883e+03 7.279999542999757068e+03 1.318949688803231268e+01 1.303626756790086461e+01 3.275976969307513587e-01
5.495000000000000000e+03 1.327958409080177034e+03 7.275664695944024970e+03 1.322382256630200281e+01 1.306991708985743905e+01 3.278284887211605492e-01
5.500000000000000000e+03 1.329317838507905662e+03 7.271340693104169077e+03 1.325820845754243038e+01 1.310362441560134883e+01 3.280591376765527589e-01
5.505000000000000000e+03 1.330677823730714408e+03 7.267027498895215103e+03 1.329265461659619163e+01 1.313738959321252686e+01 3.282896442071864263e-01
5.510000000000000000e+03 1.332038362679460533e+03 7.262725077885887913e+03 1.332716109830832707e+01 1.317121267075863500e+01 3.285200087222868714e-01
5.515000000000000000e+03 1.333399453286920107e+03 7.258433394797759320e+03 1.336172795752649911e+01 1.320509369629525409e+01 3.287502316300460747e-01
5.520000000000000000e+03 1.334761093487771177e+03 7.254152414504486842e+03 1.339635524910087838e+01 1.323903271786574365e+01 3.289803133376232314e-01
5.525000000000000000e+03 1.336123281218593320e+03 7.249882102030991518e+03 1.343104302788417215e+01 1.327302978350119744e+01 3.292102542511445851e-01
5.530000000000000000e+03 1.337486014417857405e+03 7.245622422552679382e+03 1.346579134873166872e+01 1.330708494122053231e+01 3.294400547757042608e-01
5.535000000000000000e+03 1.338849291025921502e+03 7.241373341394645649e+03 1.350060026650121436e+01 1.334119823903039581e+01 3.296697153153642090e-01
5.540000000000000000e+03 1.340213108985020881e+03 7.237134824030921664e+03 1.353546983605313692e+01 1.337536972492507381e+01 3.298992362731544836e-01
5.545000000000000000e+03 1.341577466239263686e+03 7.232906836083666349e+03 1.357040011225030973e+01 1.340959944688654737e+01 3.301286180510737966e-01
5.550000000000000000e+03 1.342942360734618433e+03 7.228689343322424975e+03 1.360539114995799892e+01 1.344388745288431686e+01 3.303578610500895740e-01
5.555000000000000000e+03 1.344307790418921286e+03 7.224482311663317887e+03 1.364044300404427901e+01 1.347823379087575191e+01 3.305869656701387882e-01
5.560000000000000000e+03 1.345673753241847407e+03 7.220285707168354747e+03 1.367555572937926023e+01 1.351263850880537021e+01 3.308159323101277360e-01
5.565000000000000000e+03 1.347040247154928693e+03 7.216099496044585067e+03 1.371072938083595538e+01 1.354710165460559956e+01 3.310447613679330936e-01
5.570000000000000000e+03 1.348407270111526941e+03 7.211923644643416992e+03 1.374596401328963324e+01 1.358162327619616327e+01 3.312734532404016941e-01
5.575000000000000000e+03 1.349774820066840448e+03 7.207758119459830596e+03 1.378125968161809034e+01 1.361620342148431106e+01 3.315020083233516379e-01
5.580000000000000000e+03 1.351142894977886272e+03 7.203602887131662101e+03 1.381661644070147865e+01 1.365084213836462901e+01 3.317304270115721265e-01
5.585000000000000000e+03 1.352511492803506599e+03 7.199457914438818989e+03 1.385203434542262713e+01 1.368553947471931131e+01 3.319587096988243502e-01
5.590000000000000000e+03 1.353880611504354874e+03 7.195323168302593331e+03 1.388751345066665266e+01 1.372029547841779440e+01 3.321868567778418213e-01
5.595000000000000000e+03 1.355250249042882842e+03 7.191198615784903268e+03 1.392305381132104358e+01 1.375511019731676932e+01 3.324148686403309849e-01
5.600000000000000000e+03 1.356620403383349412e+03 7.187084224087569964e+03 1.395865548227588704e+01 1.378998367926041801e+01 3.326427456769716073e-01
5.605000000000000000e+03 1.357991072491800651e+03 7.182979960551607292e+03 1.399431851842352259e+01 1.382491597208002609e+01 3.328704882774173868e-01
5.610000000000000000e+03 1.359362254336071601e+03 7.178885792656472404e+03 1.403004297465884953e+01 1.385990712359427590e+01 3.330980968302966749e-01
5.615000000000000000e+03 1.360733946885776732e+03 7.174801688019385438e+03 1.406582890587909063e+01 1.389495718160898008e+01 3.333255717232126991e-01
5.620000000000000000e+03 1.362106148112305164e+03 7.170727614394603734e+03 1.410167636698390048e+01 1.393006619391717926e+01 3.335529133427444504e-01
5.625000000000000000e+03 1.363478855988806117e+03 7.166663539672728803e+03 1.413758541287515058e+01 1.396523420829887030e+01 3.337801220744471276e-01
5.630000000000000000e+03 1.364852068490201418e+03 7.162609431879963267e+03 1.417355609845742492e+01 1.400046127252153028e+01 3.340071983028530256e-01
5.635000000000000000e+03 1.366225783593159122e+03 7.158565259177471489e+03 1.420958847863738228e+01 1.403574743433939531e+01 3.342341424114717574e-01
5.640000000000000000e+03 1.367599999276099652e+03 7.154530989860645604e+03 1.424568260832419497e+01 1.407109274149392775e+01 3.344609547827912532e-01
5.645000000000000000e+03 1.368974713519181705e+03 7.150506592358427952e+03 1.428183854242935347e+01 1.410649724171356745e+01 3.346876357982784267e-01
5.650000000000000000e+03 1.370349924304306114e+03 7.146492035232626222e+03 1.431805633586665216e+01 1.414196098271370161e+01 3.349141858383795078e-01
5.655000000000000000e+03 1.371725629615098114e+03 7.142487287177234066e+03 1.435433604355224624e+01 1.417748401219669674e+01 3.351406052825210424e-01
5.660000000000000000e+03 1.373101827436909389e+03 7.138492317017747155e+03 1.439067772040460724e+01 1.421306637785183469e+01 3.353668945091108911e-01
5.665000000000000000e+03 1.374478515756813295e+03 7.134507093710480149e+03 1.442708142134465099e+01 1.424870812735539971e+01 3.355930538955381737e-01
5.670000000000000000e+03 1.375855692563593493e+03 7.130531586341921866e+03 1.446354720129551019e+01 1.428440930837046530e+01 3.358190838181746019e-01
5.675000000000000000e+03 1.377233355847732355e+03 7.126565764128061346e+03 1.450007511518248826e+01 1.432016996854677693e+01 3.360449846523753670e-01
5.680000000000000000e+03 1.378611503601425738e+03 7.122609596413700274e+03 1.453666521793347854e+01 1.435599015552117486e+01 3.362707567724792512e-01
5.685000000000000000e+03 1.379990133818550021e+03 7.118663052671839978e+03 1.457331756447840654e+01 1.439186991691701323e+01 3.364964005518101264e-01
5.690000000000000000e+03 1.381369244494683926e+03 7.114726102502971116e+03 1.461003220974967576e+01 1.442780930034456688e+01 3.367219163626772316e-01
5.695000000000000000e+03 1.382748833627078511e+03 7.110798715634477048e+03 1.464680920868182845e+01 1.446380835340068138e+01 3.369473045763763941e-01
5.700000000000000000e+03 1.384128899214661942e+03 7.106880861919965355e+03 1.468364861621166639e+01 1.449986712366886898e+01 3.371725655631904739e-01
5.705000000000000000e+03 1.385509439258041994e+03 7.102972511338597542e+03 1.472055048727840543e+01 1.453598565871942405e+01 3.373976996923906402e-01
5.710000000000000000e+03 1.386890451759483767e+03 7.099073633994497868e+03 1.475751487682337526e+01 1.457216400610912643e+01 3.376227073322367045e-01
5.715000000000000000e+03 1.388271934722913102e+03 7.095184200116091233e+03 1.479454183979011894e+01 1.460840221338128941e+01 3.378475888499784530e-01
5.720000000000000000e+03 1.389653886153912936e+03 7.091304180055466531e+03 1.483163143112455273e+01 1.464470032806590893e+01 3.380723446118562570e-01
5.725000000000000000e+03 1.391036304059713757e+03 7.087433544287751829e+03 1.486878370577477426e+01 1.468105839767943088e+01 3.382969749831022388e-01
5.730000000000000000e+03 1.392419186449186782e+03 7.083572263410507730e+03 1.490599871869104476e+01 1.471747646972475465e+01 3.385214803279407714e-01
5.735000000000000000e+03 1.393802531332836907e+03 7.079720308143090733e+03 1.494327652482577484e+01 1.475395459169113721e+01 3.387458610095898659e-01
5.740000000000000000e+03 1.395186336722811802e+03 7.075877649326015671e+03 1.498061717913386381e+01 1.479049281105453773e+01 3.389701173902616160e-01
5.745000000000000000e+03 1.396570600632869173e+03 7.072044257920397285e+03 1.501802073657196779e+01 1.482709117527687503e+01 3.391942498311634746e-01
5.750000000000000000e+03 1.397955321078404268e+03 7.068220105007269012e+03 1.505548725209941274e+01 1.486374973180688386e+01 3.394182586924992528e-01
5.755000000000000000e+03 1.399340496076413956e+03 7.064405161787034558e+03 1.509301678067736141e+01 1.490046852807927458e+01 3.396421443334699530e-01
5.760000000000000000e+03 1.400726123645510143e+03 7.060599399578840348e+03 1.513060937726926092e+01 1.493724761151515601e+01 3.398659071122745456e-01
5.765000000000000000e+03 1.402112201805905443e+03 7.056802789819975260e+03 1.516826509684072022e+01 1.497408702952188619e+01 3.400895473861114127e-01
5.770000000000000000e+03 1.403498728579417502e+03 7.053015304065262171e+03 1.520598399435955272e+01 1.501098682949309904e+01 3.403130655111790692e-01
5.775000000000000000e+03 1.404885701989449672e+03 7.049236913986504987e+03 1.524376612479557558e+01 1.504794705880848049e+01 3.405364618426771073e-01
5.780000000000000000e+03 1.406273120060997144e+03 7.045467591371849267e+03 1.528161154312090275e+01 1.508496776483399415e+01 3.407597367348075279e-01
5.785000000000000000e+03 1.407660980820640361e+03 7.041707308125220152e+03 1.531952030430979228e+01 1.512204899492177645e+01 3.409828905407754629e-01
5.790000000000000000e+03 1.409049282296529327e+03 7.037956036265757575e+03 1.535749246333847751e+01 1.515919079640988620e+01 3.412059236127905071e-01
5.795000000000000000e+03 1.410438022518391790e+03 7.034213747927196891e+03 1.539552807518537136e+01 1.519639321662250531e+01 3.414288363020673844e-01
5.800000000000000000e+03 1.411827199517518920e+03 7.030480415357324091e+03 1.543362719483106993e+01 1.523365630286993344e+01 3.416516289588275024e-01
5.805000000000000000e+03 1.413216811326771904e+03 7.026756010917371896e+03 1.547178987725827604e+01 1.527098010244843707e+01 3.418743019322998955e-01
5.810000000000000000e+03 1.414606855980553291e+03 7.023040507081504984e+03 1.551001617745159855e+01 1.530836466264010376e+01 3.420968555707217251e-01
5.815000000000000000e+03 1.415997331514830421e+03 7.019333876436181527e+03 1.554830615039795028e+01 1.534581003071312821e+01 3.423192902213404998e-01
5.820000000000000000e+03 1.417388235967109040e+03 7.015636091679647507e+03 1.558665985108627616e+01 1.538331625392157065e+01 3.425416062304141307e-01
5.825000000000000000e+03 1.418779567376439672e+03 7.011947125621345549e+03 1.562507733450748049e+01 1.542088337950525734e+01 3.427638039432126527e-01
5.830000000000000000e+03 1.420171323783403523e+03 7.008266951181376498e+03 1.566355865565460448e+01 1.545851145468991739e+01 3.429858837040191677e-01
5.835000000000000000e+03 1.421563503230117931e+03 7.004595541389928258e+03 1.570210386952277304e+01 1.549620052668708681e+01 3.432078458561311773e-01
5.840000000000000000e+03 1.422956103760227506e+03 7.000932869386732818e+03 1.574071303110919118e+01 1.553395064269413872e+01 3.434296907418613043e-01
5.845000000000000000e+03 1.424349123418893441e+03 6.997278908420516927e+03 1.577938619541307474e+01 1.557176184989413592e+01 3.436514187025389577e-01
5.850000000000000000e+03 1.425742560252789190e+03 6.993633631848483674e+03 1.581812341743549410e+01 1.560963419545566389e+01 3.438730300785112215e-01
5.855000000000000000e+03 1.427136412310104561e+03 6.989997013135724956e+03 1.585692475217977915e+01 1.564756772653322692e+01 3.440945252091440754e-01
5.860000000000000000e+03 1.428530677640537988e+03 6.986369025854707616e+03 1.589579025465129725e+01 1.568556249026697635e+01 3.443159044328235052e-01
5.865000000000000000e+03 1.429925354295279476e+03 6.982749643684752300e+03 1.593471997985712996e+01 1.572361853378239260e+01 3.445371680869570574e-01
5.870000000000000000e+03 1.431320440327024016e+03 6.979138840411468664e+03 1.597371398280674804e+01 1.576173590419090154e+01 3.447583165079746159e-01
5.875000000000000000e+03 1.432715933789954079e+03 6.975536589926253328e+03 1.601277231851138438e+01 1.579991464858924921e+01 3.449793500313297345e-01
5.880000000000000000e+03 1.434111832739736201e+03 6.971942866225762373e+03 1.605189504198419570e+01 1.583815481405963155e+01 3.452002689915011913e-01
5.885000000000000000e+03 1.435508135233525081e+03 6.968357643411359277e+03 1.609108220824059643e+01 1.587645644766999453e+01 3.454210737219937655e-01
5.890000000000000000e+03 1.436904839329945617e+03 6.964780895688636519e+03 1.613033387229767968e+01 1.591481959647343380e+01 3.456417645553397366e-01
5.895000000000000000e+03 1.438301943089096312e+03 6.961212597366870796e+03 1.616965008917467728e+01 1.595324430750865297e+01 3.458623418231001612e-01
5.900000000000000000e+03 1.439699444572546554e+03 6.957652722858511879e+03 1.620903091389275730e+01 1.599173062779968646e+01 3.460828058558660381e-01
5.905000000000000000e+03 1.441097341843322738e+03 6.954101246678686039e+03 1.624847640147493522e+01 1.603027860435584273e+01 3.463031569832594747e-01
5.910000000000000000e+03 1.442495632965916911e+03 6.950558143444658526e+03 1.628798660694634393e+01 1.606888828417190851e+01 3.465233955339352967e-01
5.915000000000000000e+03 1.443894316006266081e+03 6.947023387875367007e+03 1.632756158533391044e+01 1.610755971422781130e+01 3.467435218355820470e-01
5.920000000000000000e+03 1.445293389031757670e+03 6.943496954790893142e+03 1.636720139166644472e+01 1.614629294148869931e+01 3.469635362149233182e-01
5.925000000000000000e+03 1.446692850111232701e+03 6.939978819111949633e+03 1.640690608097495584e+01 1.618508801290520793e+01 3.471834389977190849e-01
5.930000000000000000e+03 1.448092697314953512e+03 6.936468955859438211e+03 1.644667570829197700e+01 1.622394497541277403e+01 3.474032305087673134e-01
5.935000000000000000e+03 1.449492928714634672e+03 6.932967340153878467e+03 1.648651032865227961e+01 1.626286387593232163e+01 3.476229110719046833e-01
5.940000000000000000e+03 1.450893542383410477e+03 6.929473947214989494e+03 1.652640999709228353e+01 1.630184476136965799e+01 3.478424810100084197e-01
5.945000000000000000e+03 1.452294536395848581e+03 6.925988752361142360e+03 1.656637476865055447e+01 1.634088767861592473e+01 3.480619406449974029e-01
5.950000000000000000e+03 1.453695908827927497e+03 6.922511731008931747e+03 1.660640469836721067e+01 1.637999267454699392e+01 3.482812902978335012e-01
5.955000000000000000e+03 1.455097657757054776e+03 6.919042858672622060e+03 1.664649984128461213e+01 1.641915979602412179e+01 3.485005302885231249e-01
5.960000000000000000e+03 1.456499781262040642e+03 6.915582110963742707e+03 1.668666025244665363e+01 1.645838908989324523e+01 3.487196609361182253e-01
5.965000000000000000e+03 1.457902277423107080e+03 6.912129463590552405e+03 1.672688598689931538e+01 1.649768060298545436e+01 3.489386825587179608e-01
5.970000000000000000e+03 1.459305144321882835e+03 6.908684892357587159e+03 1.676717709969038239e+01 1.653703438211674737e+01 3.491575954734701392e-01
5.975000000000000000e+03 1.460708380041388409e+03 6.905248373165196426e+03 1.680753364586942311e+01 1.657645047408792749e+01 3.493763999965722178e-01
5.980000000000000000e+03 1.462111982666044923e+03 6.901819882009055618e+03 1.684795568048787473e+01 1.661592892568471669e+01 3.495950964432728014e-01
