#[MATERIAL DEFINITION FOR MC-GPU: interaction mean free path and sampling data from PENELOPE 2006]
#[MATERIAL NAME]
#  aluminium(Al)
#[NOMINAL DENSITY (g/cm^3)]
#  2.7
#[NUMBER OF DATA VALUES]
# 24001
#[MEAN FREE PATHS (cm)]
#[Energy (eV)     | Rayleigh        | Compton         | Photoelectric   | TOTAL (+pair prod) (cm) | Rayleigh: max cumul prob F^2]
5000.0 0.3320145697901406 5.456764384723074 0.001926861563687611 0.0019150711228512936 0.28509474022063214
5005.0 0.3322588046154574 5.452977984025486 0.001932325137854857 0.0019204756411784047 0.28544144522887743
5010.0 0.33250319727431676 5.449198161275204 0.0019377991508539097 0.001925890363251352 0.28578803420490567
5015.0 0.33274774801606366 5.445424900994073 0.0019432836134878173 0.00193131529918733 0.2861345067068533
5020.0 0.33299245708948016 5.441658187749041 0.0019487785365626953 0.0019367504591053719 0.2864808622941268
5025.0 0.3332373247427883 5.437898006152 0.0019542839308877087 0.0019421958531263322 0.2868271005274026
5030.0 0.3334823512236559 5.434144340859638 0.001959799807275127 0.0019476514913729377 0.2871732209686273
5035.0 0.3337275367791976 5.430397176573299 0.0019653261765402636 0.0019531173839697305 0.2875192231810179
5040.0 0.3339728816559807 5.426656498038815 0.001970863049501531 0.0019585935410431185 0.2878651067290622
5045.0 0.3342183861000262 5.422922290046402 0.001976410436980388 0.001964079972721326 0.2882108711785184
5050.0 0.33446405035681354 5.419194537430479 0.001981968349801377 0.0019695766891344264 0.2885565160964154
5055.0 0.33470987467128493 5.415473225069528 0.001987536798792127 0.0019750837004143475 0.2889020410510531
5060.0 0.33495585928784644 5.411758337885979 0.0019931157947833157 0.001980601016694831 0.28924744561200233
5065.0 0.33520200445037374 5.408049860846021 0.0019987053486087295 0.001986128648111495 0.2895927293501047
5070.0 0.33544831040221357 5.40434777895951 0.002004305471105192 0.001991666604801756 0.2899378918374729
5075.0 0.3356947773861883 5.400652077279775 0.002009916173112626 0.0019972148969048956 0.2902829326474905
5080.0 0.335941405644599 5.396962740903515 0.002015537465474035 0.002002773534562041 0.29062785135481195
5085.0 0.3361881954192284 5.3932797549706395 0.0020211693590354855 0.002008342527916142 0.29097264753536267
5090.0 0.33643514695134413 5.389603104664133 0.002026811864646122 0.0020139218871119903 0.29131732076633904
5095.0 0.3366822604817021 5.38593277520991 0.002032464993158168 0.00201951162229622 0.29166187062620785
5100.0 0.3369295362505508 5.382268751876677 0.002038128755426938 0.0020251117436173127 0.2920062966947069
5105.0 0.3371769744976323 5.378611019975797 0.002043803162310805 0.002030722261225572 0.29235059855284434
5110.0 0.3374245754621874 5.374959564861142 0.0020494882246712277 0.0020363431852731457 0.2926947757828988
5115.0 0.33767233938295876 5.371314371928953 0.0020551839533727665 0.002041974525914042 0.2930388279684191
5120.0 0.33792026649819235 5.36767542661771 0.0020608903592830314 0.0020476162933040776 0.2933827546942243
5125.0 0.338168357045642 5.364042714407998 0.002066607453272728 0.0020532684976009214 0.29372655554640303
5130.0 0.338416611262572 5.360416220822356 0.002072335246215624 0.002058931148964063 0.29407023011231403
5135.0 0.33866502938576143 5.356795931425138 0.0020780737489886117 0.0020646042575548705 0.2944137779805852
5140.0 0.33891361165150524 5.353181831822394 0.002083822972471624 0.00207028783353651 0.2947571987411137
5145.0 0.33916235829561786 5.3495739076617275 0.0020895829275476797 0.0020759818870739887 0.2951004919850657
5150.0 0.3394112695534388 5.345972144632139 0.0020953536251029133 0.002081686428334183 0.29544365730487604
5155.0 0.33966034565983094 5.342376528463922 0.002101135076026505 0.0020874014674857684 0.2957866942942479
5160.0 0.3399095868491881 5.338787044928511 0.002106927291210739 0.0020931270146992797 0.29612960254815246
5165.0 0.3401589933554352 5.335203679838348 0.002112730281550976 0.0020988630801470776 0.2964723816628287
5170.0 0.34040856541203274 5.3316264190467475 0.002118544057945669 0.00210460967400337 0.2968150312357829
5175.0 0.34065830325197893 5.328055248447763 0.002124368631296357 0.0021103668064441986 0.29715755086578843
5180.0 0.3409082071078125 5.324490153976073 0.0021302040125076452 0.0021161344876474255 0.29749994015288517
5185.0 0.3411582772116163 5.320931121606822 0.0021360502124872396 0.0021219127277927606 0.2978421986983793
5190.0 0.3414085137950208 5.317378137355478 0.00214190724214595 0.002127701537061768 0.2981843261048427
5195.0 0.34165891708920487 5.313831187277751 0.0021477751123976465 0.00213350092563782 0.2985263219761126
5200.0 0.34190948732490034 5.310290257469415 0.0021536538341592926 0.0021393109037061322 0.29886818591729136
5205.0 0.3421602247323943 5.306755334066207 0.0021595434183509406 0.0021451314814537547 0.29920991753474535
5210.0 0.3424111295415328 5.3032264032436505 0.002165443875895748 0.002150962669069589 0.2995515164361051
5215.0 0.34266220198172176 5.299703451216997 0.0021713552177199313 0.0021568044767443432 0.2998929822302647
5220.0 0.3429134422819318 5.296186464241039 0.0021772774547528205 0.0021626569146705843 0.30023431452738103
5225.0 0.3431648506706997 5.292675428609998 0.002183210597926818 0.002168519993042695 0.30057551293887314
5230.0 0.34341642737613215 5.289170330657387 0.0021891546581774405 0.0021743937220569183 0.30091657707742225
5235.0 0.3436681726259074 5.285671156755909 0.0021951096464432602 0.0021802781119112944 0.3012575065569707
5240.0 0.3439200866472789 5.282177893317309 0.0022010755736659683 0.002186173172805727 0.3015983009927214
5245.0 0.3441721696670786 5.278690526792224 0.002207052450790354 0.0021920789149419595 0.3019389600011374
5250.0 0.34442442191171685 5.275209043670124 0.0022130402887642576 0.002197995348523528 0.30227948319994136
5255.0 0.3446768436071893 5.271733430479098 0.0022190390985386654 0.002203922483755855 0.3026198702081144
5260.0 0.34492943497907524 5.268263673785807 0.0022250488910676085 0.002209860330846148 0.3029601206458962
5265.0 0.3451821962525437 5.264799760195307 0.0022310696773082343 0.0022158089000034733 0.3033002341347838
5270.0 0.3454351276523543 5.261341676350931 0.0022371014682207816 0.002221768201438725 0.30364021029753085
5275.0 0.34568822940286054 5.257889408934189 0.0022431442747685936 0.002227738245364641 0.30398004875814744
5280.0 0.3459415017280118 5.254442944664616 0.0022491981079180877 0.00223371904199577 0.304319749141899
5285.0 0.34619494485135716 5.251002270299657 0.002255262978638796 0.002239710601548515 0.3046593110753057
5290.0 0.3464485589960455 5.247567372634568 0.002261338897903319 0.0022457129342410816 0.3049987341861415
5295.0 0.346702344384832 5.244138238502234 0.0022674258766873863 0.002251726050293543 0.3053380181034338
5300.0 0.34695630124007615 5.240714854773111 0.002273523925969796 0.0022577499599277747 0.30567716245746235
5305.0 0.3472104297837489 5.23729720835505 0.0022796330567324743 0.002263784673367514 0.3060161668797586
5310.0 0.34746473023743013 5.233885286193231 0.002285753279960393 0.0022698302008382805 0.30635503100310474
5315.0 0.347719202822317 5.230479075269968 0.002291884606641689 0.00227588655256749 0.30669375446153313
5320.0 0.3479738477592202 5.227078562604674 0.002298027047767523 0.0022819537387843165 0.3070323368903254
5325.0 0.34822866526857243 5.22368373525365 0.0023041806143322334 0.0022880317697198433 0.3073707779260115
5330.0 0.34848365557042565 5.220294580310051 0.0023103453173331815 0.0022941206556069075 0.307709077206369
5335.0 0.3487388188844572 5.216911084903692 0.0023165211677708825 0.0023002204066802333 0.30804723437042186
5340.0 0.3489941554299712 5.213533236200978 0.0023227081766489348 0.002306331033176356 0.3083852490584403
5345.0 0.34924966542589897 5.210161021404774 0.00232890635497401 0.0023124525453336146 0.30872312091193904
5350.0 0.34950534909080583 5.206794427754251 0.0023351157137559415 0.0023185849533922404 0.309060849573677
5355.0 0.3497612066428877 5.203433442524842 0.002341336264007584 0.0023247282675942114 0.30939843468765604
5360.0 0.3500172382999796 5.200078053028025 0.0023475680167449687 0.0023308824981834145 0.30973587589912027
5365.0 0.3502734442795527 5.1967282466113085 0.0023538109829871743 0.002337047655405506 0.3100731728545548
5370.0 0.350529824798721 5.193384010658025 0.0023600651737564235 0.0023432237495080175 0.31041032520168527
5375.0 0.3507863800742399 5.190045332587274 0.0023663306000780023 0.002349410790740268 0.3107473325894762
5380.0 0.3510431103225111 5.1867121998537895 0.0023726072729803207 0.002355608789353424 0.3110841946681305
5385.0 0.3513000157595843 5.183384599947815 0.002378895203494893 0.002361817755600484 0.3114209110890884
5390.0 0.3515570966011597 5.180062520394975 0.0023851944026563377 0.0023680376997362745 0.3117574815050265
5395.0 0.35181435306258857 5.176745948756201 0.002391504881502368 0.0023742686320174385 0.3120939055698563
5400.0 0.3520717853588787 5.173434872627576 0.0023978266510738173 0.002380510562702462 0.31243018293872354
5405.0 0.3523293937046926 5.170129279640252 0.0024041597224146 0.002386763502051638 0.3127663132680073
5410.0 0.35258717831435393 5.1668291574603105 0.0024105041065717557 0.002393027460327102 0.31310229621531854
5415.0 0.3528451394018471 5.16353449378866 0.002416859814595428 0.0023993024477928153 0.3134381314394993
5420.0 0.3531032771808199 5.160245276360929 0.0024232268575388495 0.0024055884747145517 0.3137738186006213
5425.0 0.3533615918645865 5.156961492947333 0.00242960524645839 0.002411885551359939 0.31410935735998535
5430.0 0.35362008366612885 5.15368313135258 0.002435994992413506 0.0024181936879984103 0.3144447473801197
5435.0 0.353878752798099 5.150410179415766 0.00244239610646675 0.0024245128949012167 0.3147799883247793
5440.0 0.3541375994728222 5.147142625010226 0.002448808599683816 0.002430843182341467 0.3151150798589445
5445.0 0.3543966239022969 5.143880456043472 0.0024552324831334667 0.002437184560594055 0.31545002164881975
5450.0 0.35465582629819986 5.140623660457041 0.0024616677678876084 0.002443537039935735 0.31578481336183284
5455.0 0.3549152068718858 5.137372226226396 0.002468114465021239 0.0024499006306450705 0.31611945466663344
5460.0 0.3551747658343903 5.13412614136084 0.0024745725856124574 0.002456275343002441 0.3164539452330918
5465.0 0.3554345033964328 5.130885393903371 0.0024810421407424977 0.002462661187290075 0.31678828473229786
5470.0 0.35569441976841726 5.127649971930591 0.0024875231414956778 0.002469058173792001 0.3171224728365601
5475.0 0.35595451516043525 5.124419863552592 0.002494015598959438 0.002475466312794081 0.31745650921940377
5480.0 0.3562147897822683 5.121195056912843 0.0025005195242243502 0.0024818856145840235 0.31779039355557026
5485.0 0.3564752438433879 5.117975540188104 0.0025070349283840537 0.002488316089451317 0.31812412552101565
5490.0 0.3567358775529598 5.114761301588297 0.0025135618225353164 0.002494757747687289 0.31845770479290925
5495.0 0.3569966911198469 5.111552329356377 0.002520100217778062 0.002501210599585136 0.3187911310496327
5500.0 0.3572576847526061 5.108348611768293 0.0025266501252152445 0.0025076746554397933 0.31912440397077857
5505.0 0.3575188586594974 5.105150137132803 0.002533211555953004 0.002514149925548093 0.31945752323714877
5510.0 0.35778021304848034 5.101956893791425 0.0025397845211005553 0.002520636420208652 0.31979048853075376
5515.0 0.35804174812721895 5.098768870118289 0.002546369031770242 0.0025271341497219236 0.32012329953481095
5520.0 0.3583034641030822 5.095586054520073 0.0025529650990775096 0.002533643124390172 0.32045595593374354
5525.0 0.35856536118314686 5.092408435435862 0.0025595727341409273 0.0025401633545174937 0.32078845741317885
5530.0 0.35882743957419927 5.0892360013370554 0.002566191948082172 0.0025466948504097972 0.3211208036599475
5535.0 0.3590896994827374 5.086068740727273 0.00257282275202605 0.0025532376223748278 0.3214529943620817
5540.0 0.35935214111497227 5.082906642142234 0.0025794651571004676 0.0025597916807221367 0.32178502920881397
5545.0 0.35961476467683035 5.079749694149658 0.002586119174436454 0.002566357035763104 0.3221169078905759
5550.0 0.35987757037395496 5.0765978853491776 0.002592784815168135 0.0025729336978109097 0.3224486300989966
5555.0 0.3601405584117101 5.073451204372192 0.0025994620904328156 0.0025795216771806167 0.3227801955269014
5560.0 0.36040372899517825 5.070309639881831 0.002606151011370827 0.002586120984189019 0.3231116038683105
5565.0 0.3606670823291673 5.06717318057278 0.0026128515891256903 0.0025927316291548003 0.32344285481843765
5570.0 0.3609306186182084 5.064041815171232 0.0026195638348440143 0.002599353622398437 0.32377394807368837
5575.0 0.36119433806656004 5.060915532434765 0.002626287759675534 0.0026059869742422314 0.3241048833316589
5580.0 0.3614582408782085 5.057794321152243 0.002633023374773078 0.00261263169501028 0.3244356602911347
5585.0 0.3617223272568717 5.05467817014369 0.0026397706912926386 0.002619287795028545 0.32476627865208885
5590.0 0.3619865974059987 5.051567068260244 0.0026465297203932922 0.002625955284624772 0.3250967381156807
5595.0 0.3622510515287726 5.0484610043840075 0.0026533004732372484 0.002632634174128536 0.3254270383842546
5600.0 0.3625156898281133 5.0453599674279745 0.002660082960989837 0.0026393244738712332 0.32575717916133795
5605.0 0.36278051250667664 5.042263946335915 0.0026668771948194898 0.00264602619418606 0.32608716015164035
5610.0 0.3630455197668597 5.039172930082285 0.0026736831858977894 0.0026527393454080592 0.32641698106105166
5615.0 0.3633107118107999 5.036086907672112 0.0026805009453994225 0.0026594639378740748 0.3267466415966405
5620.0 0.36357608884037795 5.0330058681409255 0.002687330484502206 0.0026661999819227768 0.3270761414666531
5625.0 0.363841651057218 5.029929800554645 0.002694171814387047 0.002672947487894622 0.3274054803805114
5630.0 0.3641073986626929 5.0268586940094515 0.0027010249462380287 0.0026797064661319347 0.32773465804881197
5635.0 0.3643733318579225 5.023792537631747 0.002707889891242315 0.0026864769269788194 0.32806367418332383
5640.0 0.36463945084377647 5.020731320578006 0.002714766660590206 0.0026932588807812062 0.32839252849698763
5645.0 0.3649057558208767 5.017675032034715 0.0027216552654751283 0.0027000523378868445 0.32872122070391374
5650.0 0.36517224698959827 5.014623661218247 0.0027285557170936277 0.0027068573086452977 0.32904975051938057
5655.0 0.3654389245500711 5.011577197374792 0.0027354680266453656 0.0027136738034079354 0.3293781176598333
5660.0 0.36570578870218207 5.00853562978024 0.0027423922053331344 0.002720501832527949 0.32970632184288234
5665.0 0.36597283964557753 5.005498947740084 0.0027493282643628702 0.0027273414063603636 0.3300343627873013
5670.0 0.3662400775796632 5.002467140589348 0.0027562762149436143 0.002734192535262001 0.33036224021302596
5675.0 0.36650750270360544 4.999440197692479 0.0027632360682875103 0.0027410552295914735 0.33068995384115246
5680.0 0.36677511521633693 4.996418108443235 0.002770207835609889 0.002747929499709269 0.3310175033939354
5685.0 0.36704291531655264 4.993400862264621 0.0027771915281291377 0.002754815355977622 0.3313448885947867
5690.0 0.3673109032027166 4.99038844860877 0.0027841871570668335 0.0027617128087606404 0.331672109168274
5695.0 0.36757907907306 4.987380856956862 0.002791194733647638 0.002768621868424208 0.3319991648401185
5700.0 0.3678474431255839 4.984378076819045 0.0027982142690993347 0.002775542545336014 0.3323260553371937
5705.0 0.36811599555806235 4.981380097734293 0.0028052457746528836 0.0027824748498656107 0.33265278038752405
5710.0 0.36838473656804144 4.978386909270378 0.0028122892615423194 0.0027894187923843084 0.33297933972028265
5715.0 0.36865366635284236 4.975398501023725 0.0028193447410048253 0.002796374383265253 0.33330573306579014
5720.0 0.3689227851095633 4.972414862619346 0.002826412224280722 0.0028033416328834115 0.3336319601555127
5725.0 0.3691920930350804 4.969435983710736 0.0028334917226134544 0.0028103205516155556 0.33395802072206077
5730.0 0.36946159032604886 4.966461853979799 0.002840583247249595 0.0028173111498402703 0.3342839144991868
5735.0 0.36973127717890486 4.9634924631367445 0.0028476868094388205 0.002824313437937925 0.33460964122178427
5740.0 0.3700011537898689 4.960527800919983 0.002854802420433991 0.0028313274262907542 0.3349352006258855
5745.0 0.37027122035494336 4.9575678570960795 0.0028619300914910326 0.0028383531252827404 0.33526059244865997
5750.0 0.37054147706991886 4.954612621459593 0.0028690698338690672 0.0028453905452997413 0.335585816428413
5755.0 0.37081192413037184 4.951662083833061 0.0028762216588303093 0.0028524396967293864 0.3359108723045837
5760.0 0.37108256173166776 4.948716234066868 0.0028833855776401007 0.0028595005899611134 0.33623575981774345
5765.0 0.3713533900689625 4.945775062039168 0.0028905616015669215 0.0028665732353861727 0.3365604787095939
5770.0 0.3716244093372044 4.942838557655776 0.0028977497418824034 0.002873657643397649 0.33688502872296566
5775.0 0.3718956197311344 4.939906710850117 0.002904950009861276 0.0028807538243903986 0.33720940960181633
5780.0 0.37216702144528874 4.936979511583107 0.0029121624167814325 0.0028878617887611187 0.3375336210912288
5785.0 0.3724386146740002 4.934056949843066 0.0029193869739238916 0.0028949815469083095 0.33785766293740943
5790.0 0.3727103996113985 4.931139015645658 0.002926623692572789 0.002902113109232264 0.33818153488768643
5795.0 0.372982376451413 4.928225699033774 0.00293387258401539 0.0029092564861350756 0.3385052366905081
5800.0 0.3732545453877743 4.925316990077457 0.0029411336595421304 0.002916411688020686 0.33882876809544094
5805.0 0.3735269066140153 4.922412878873802 0.002948406930446562 0.002923578725294825 0.3391521288531682
5810.0 0.37379946032347067 4.91951335554691 0.00295569240802534 0.0029307576083650003 0.3394753187154875
5815.0 0.37407220670928254 4.9166184102477395 0.0029629901035783056 0.002937948347640576 0.33979833743530974
5820.0 0.37434514596439816 4.913728033154084 0.0029703000284084006 0.0029451509535326913 0.340121184766657
5825.0 0.37461827828157246 4.91084221447043 0.0029776221938217122 0.0029523654364542982 0.3404438604646607
5830.0 0.3748916038533701 4.907960944427924 0.0029849566111274594 0.0029595918068201542 0.3407663642855598
5835.0 0.3751651228721666 4.9050842132842405 0.002992303291638001 0.0029668300750468253 0.34108869598669933
5840.0 0.37543883553014973 4.902212011323524 0.002999662246668852 0.002974080251552702 0.3414108553265281
5845.0 0.3757127420193204 4.899344328856305 0.0030070334875386367 0.0029813423467579554 0.3417328420645973
5850.0 0.37598684253149345 4.8964811562194175 0.003014417025569108 0.002988616371084552 0.34205465596155843
5855.0 0.3762611372583012 4.89362248377589 0.0030218128720851754 0.0029959023349562827 0.34237629677916154
5860.0 0.3765356263911935 4.8907683019148855 0.0030292210384149074 0.003003200248798762 0.3426977642802535
5865.0 0.37681031012143795 4.88791860105162 0.003036641535889453 0.0030105101230393574 0.34301905822877615
5870.0 0.37708518864012425 4.885073371627266 0.003044074375843163 0.003017831968107296 0.3433401783897644
5875.0 0.37736026213816243 4.882232604108877 0.0030515195696134865 0.0030251657944335734 0.3436611245293443
5880.0 0.3776355308062851 4.879396288989303 0.003058977128541005 0.003032511612450983 0.3439818964147315
5885.0 0.377910994835051 4.876564416787115 0.0030664470639694894 0.003039869432594167 0.34430249381422906
5890.0 0.37818665441484245 4.873736978046513 0.003073929387245795 0.003047239265299519 0.34462291649722593
5895.0 0.37846250973586965 4.870913963337252 0.003081424109719937 0.0030546211210052535 0.3449431642341948
5900.0 0.37873856098817144 4.868095363254555 0.0030889312427450823 0.0030620150101514005 0.3452632367966904
5905.0 0.379014808361615 4.865281168419043 0.0030964507976775245 0.003069420943179776 0.3455831339573475
5910.0 0.37929125204589975 4.862471369476629 0.003103982785876712 0.0030768389305340137 0.34590285548987937
5915.0 0.3795678922305562 4.85966595709848 0.003111527218705219 0.0030842689826595317 0.3462224011690754
5920.0 0.3798447291049479 4.856864921980901 0.0031190841075287535 0.0030917111100035428 0.3465417707707995
5925.0 0.3801217628582751 4.8540682548452505 0.003126653463716215 0.0030991653230151095 0.3468609640719885
5930.0 0.3803989936795709 4.851275946437907 0.0031342352986395636 0.0031066316321450155 0.3471799808506498
5935.0 0.3806764217577086 4.848487987530139 0.0031418296236739827 0.0031141100478459223 0.3474988208858596
5940.0 0.3809540472813976 4.845704368918052 0.0031494364501977435 0.003121600580572241 0.347817483957761
5945.0 0.3812318704391891 4.842925081422499 0.0031570557895923036 0.0031291032407802194 0.3481359698475624
5950.0 0.3815098914194725 4.840150115889032 0.0031646876532422 0.003136618038927847 0.3484542783375351
5955.0 0.3817881104104827 4.837379463187758 0.003172332052535202 0.0031441449854749974 0.34877240921101194
5960.0 0.38206652760029486 4.834613114213344 0.0031799889988621405 0.0031516840908832624 0.34909036225238477
5965.0 0.3823451431768305 4.831851059884872 0.0031876585036170295 0.0031592353656160702 0.349408137247103
5970.0 0.38262395732785703 4.829093291145795 0.0031953405781970407 0.003166798820138662 0.3497257339816716
5975.0 0.3829029702409879 4.826339798963859 0.0032030352340024558 0.0031743744649180383 0.35004315224364924
5980.0 0.3831821821036853 4.823590574331006 0.0032107424824367277 0.0031819623104230275 0.35036039182164586
5985.0 0.38346159310326056 4.8208456082633315 0.0032184623349064303 0.003189562367124229 0.35067745250532145
5990.0 0.3837412034268767 4.8181048918009655 0.003226194802821325 0.003197174645494081 0.3509943340853838
5995.0 0.38402101326154664 4.815368416008038 0.0032339398975942675 0.0032047991560067656 0.35131103635358646
6000.0 0.384301022727686 4.81263617287681 0.00324169762869981 0.0032124359072274655 0.35162755910272686
6005.0 0.3845812204429971 4.809908310317254 0.0032494676699886364 0.003220084577402124 0.3519439021266445
6010.0 0.3848616180114416 4.807184661829015 0.0032572503708644613 0.003227745509653484 0.352260065220219
6015.0 0.3851422154102457 4.804465218945406 0.0032650457425727085 0.003235418714271555 0.3525760481793679
6020.0 0.38542301261692324 4.801749973220666 0.003272853796361067 0.0032431042015471367 0.35289185080104496
6025.0 0.3857040096092784 4.799038916229841 0.0032806745434795846 0.003250801981771911 0.35320747288323817
6030.0 0.3859852063654042 4.796332039568771 0.0032885079951806744 0.003258512065238442 0.3535229142249676
6035.0 0.3862666028636784 4.793629334854035 0.0032963541627190375 0.003266234462240108 0.3538381746262838
6040.0 0.3865481990827671 4.790930793722846 0.00330421305735177 0.0032739691830711935 0.3541532538882656
6045.0 0.3868299950016176 4.788236407833071 0.00331208469033823 0.00328171623802677 0.35446815181301783
6050.0 0.3871119905994638 4.785546168863093 0.0033199690729401963 0.00328947563740284 0.35478286820367005
6055.0 0.38739418585581864 4.782860068511838 0.003327866216421695 0.0032972473914961733 0.35509740286437425
6060.0 0.38767658075047773 4.780178098498644 0.003335776132049133 0.003305031510604433 0.3554117556003026
6065.0 0.38795917526351675 4.777500250563248 0.003343698831091264 0.003312828005026142 0.35572592621764576
6070.0 0.38824196937528915 4.774826516465718 0.003351634324819143 0.003320636885060635 0.35603991452361106
6075.0 0.3885249630664259 4.772156887986415 0.0033595826245061615 0.003328458161008099 0.3563537203264201
6080.0 0.3888081563178357 4.769491356925895 0.003367543741428087 0.003336291843169601 0.35666734343530715
6085.0 0.38909154911070154 4.766829915104903 0.0033755176868629764 0.0033441379418470076 0.35698078366051694
6090.0 0.3893751414264795 4.764172554364294 0.003383504472091199 0.0033519964673430092 0.35729404081330257
6095.0 0.3896589332469013 4.761519266564974 0.003391504108395527 0.0033598674299612 0.3576071147059239
6100.0 0.3899429245539685 4.758870043587852 0.0033995166070610048 0.0033677508400059538 0.3579200051516452
6105.0 0.3902271153299547 4.756224877333794 0.0034075419793750364 0.0033756467077825096 0.35823271196473344
6110.0 0.3905115055574024 4.753583759723549 0.0034155802366273393 0.00338355504359692 0.35854523496045587
6115.0 0.3907960952191239 4.75094668269771 0.003423631390109988 0.003391475857756099 0.3588575739550785
6120.0 0.39108088429819754 4.748313638216662 0.0034316954511173464 0.0033994091605677483 0.3591697287658639
6125.0 0.3913658727779702 4.745684618260509 0.0034397724309461635 0.0034073549623404547 0.3594816992110691
6130.0 0.3916510606420527 4.743059614829041 0.003447862340895473 0.0034153132733835906 0.3597934851099435
6135.0 0.3919364478743202 4.740438619941675 0.003455965192266646 0.0034232841040073587 0.36010508628272747
6140.0 0.39222203445891257 4.737821625637384 0.003464080996363412 0.0034312674645228212 0.36041650255064944
6145.0 0.3925078203802303 4.735208623974678 0.0034722097644917863 0.0034392633652418165 0.36072773373592465
6150.0 0.39279380562293625 4.732599607031511 0.0034803515079601445 0.003447271816477039 0.3610387796617528
6155.0 0.393079990171953 4.72999456690526 0.0034885062380791824 0.0034552928285419967 0.3613496401523158
6160.0 0.3933663740124623 4.727393495712657 0.003496673966161909 0.0034633264117510014 0.3616603150327763
6165.0 0.39365295712990417 4.724796385589731 0.0035048547035236924 0.0034713725764192152 0.36197080412927535
6170.0 0.3939397395099764 4.722203228691769 0.003513048461482226 0.0034794313328626106 0.3622811072689303
6175.0 0.3942267211386307 4.719614017193261 0.003521255251357468 0.0034875026913979193 0.362591224279833
6180.0 0.39451390200207653 4.717028743287835 0.0035294750844717974 0.003495586662342778 0.36290115499104764
6185.0 0.39480128208677495 4.71444739918822 0.003537707972149843 0.0035036832560155578 0.36321089923260874
6190.0 0.3950888613794415 4.711869977126185 0.0035459539257185926 0.0035117924827354745 0.36352045683551926
6195.0 0.3953766398670434 4.70929646935249 0.0035542129565073665 0.0035199143528225597 0.36382982763174826
6200.0 0.3956646175367989 4.706726868136829 0.0035624850758478018 0.003528048876597646 0.3641390114542292
6205.0 0.39595279437617636 4.70416116576778 0.0035707702950738595 0.0035361960643823668 0.36444800813685785
6210.0 0.3962411703728926 4.701599354552771 0.003579068625521815 0.0035443559264991538 0.36475681751449
6215.0 0.39652974551491343 4.699041426817992 0.0035873800785303006 0.0035525284732712725 0.36506543942293973
6220.0 0.3968185197904512 4.696487374908385 0.0035957046654402397 0.0035607137150227585 0.3653738736989772
6225.0 0.3971074931879639 4.6939371911875565 0.0036040423975948936 0.0035689116620784616 0.3656821201803267
6230.0 0.3973966656961552 4.691390868037757 0.0036123932863398388 0.0035771223247640224 0.36599017870566464
6235.0 0.3976860373039735 4.6888483978598 0.0036207573430230007 0.0035853457134059027 0.36629804911461744
6240.0 0.39797560800060966 4.686309773073037 0.003629134578994611 0.003593581838331346 0.3666057312477594
6245.0 0.3982653777754958 4.683774986115302 0.003637525005607189 0.0036018307098683575 0.3669132249466108
6250.0 0.3985553466183081 4.681244029442834 0.0036459286342156593 0.0036100923383458106 0.36722053005363614
6255.0 0.3988455145189603 4.678716895530272 0.0036543454761771817 0.003618366734093293 0.3675276464122414
6260.0 0.3991358814676073 4.676193576870568 0.003662775542851306 0.0036266539074412455 0.3678345738667725
6265.0 0.3994264474546413 4.673674065974957 0.0036712188455998475 0.003634953868720842 0.36814131226251307
6270.0 0.3997172124706937 4.6711583553728815 0.0036796753957870016 0.003643266628264104 0.36844786144568287
6275.0 0.40000817650663006 4.668646437611993 0.0036881452047792186 0.003651592196403774 0.368754221263435
6280.0 0.4002993395535538 4.666138305258035 0.0036966282839453165 0.0036599305834734237 0.3690603915638543
6285.0 0.40059070160280263 4.6636339508948454 0.003705124644656434 0.0036682817998074098 0.3693663721959551
6290.0 0.40088226264594773 4.66113336712429 0.0037136342982860117 0.003676645855740851 0.3696721630096794
6295.0 0.40117402267479324 4.6586365465662025 0.0037221572562098114 0.003685022761609649 0.369977763855895
6300.0 0.40146598168137504 4.656143481858359 0.003730693529805905 0.0036934125277504767 0.3702831745863927
6305.0 0.40175813965796175 4.653654165656394 0.003739243130454731 0.003701815164500825 0.370588395053885
6310.0 0.4020504965970498 4.651168590633803 0.00374780606953897 0.003710230682198894 0.3708934251120036
6315.0 0.4023430524913674 4.648686749481834 0.0037563823584436996 0.0037186590911837277 0.3711982646152978
6320.0 0.4026358073338698 4.646208634909477 0.003764972008556264 0.0037271004017950943 0.3715029134192319
6325.0 0.40292876111773995 4.643734239643421 0.0037735750312663436 0.0037355546243735536 0.3718073713801836
6330.0 0.4032219138363879 4.641263556427973 0.003782191437965927 0.0037440217692604233 0.3721116383554416
6335.0 0.4035152654834502 4.638796578025033 0.003790821240049348 0.0037525018467978186 0.37241571420320396
6340.0 0.4038088160527867 4.636333297214043 0.003799464448913223 0.003760994867328588 0.37271959878257566
6345.0 0.4041025655384823 4.633873706791944 0.003808121075956479 0.0037695008411963373 0.37302329195356676
6350.0 0.40439651393484594 4.631417799573106 0.0038167911325804127 0.0037780197787454935 0.3733267935770903
6355.0 0.40469066123640735 4.628965568389301 0.003825474630188583 0.0037865516903211865 0.3736301035149601
6360.0 0.4049850074379193 4.626517006089652 0.003834171580186897 0.0037950965862693455 0.3739332216298893
6365.0 0.40527955253435455 4.6240721055405825 0.003842881993983563 0.003803654476936639 0.37423614778548736
6370.0 0.40557429652090526 4.621630859625772 0.003851605882989095 0.0038122253726704932 0.3745388818462586
6375.0 0.40586923939298386 4.619193261246099 0.00386034325861636 0.003820809283819119 0.3748414236776004
6380.0 0.4061643811462198 4.616759303319608 0.0038690941322804904 0.0038294062207314397 0.3751437731458007
