#[MATERIAL DEFINITION FOR MC-GPU: interaction mean free path and sampling data from PENELOPE 2006]
#[MATERIAL NAME]
# blood(0.102:H_0.11:C_0.033:N_0.745:O_0.001:Na_0.001:P_0.002:S_0.003:Cl_0.002:K_0.001:Fe)
#[NOMINAL DENSITY (g/cm^3)]
# 1.06
#[NUMBER OF DATA VALUES]
# 24001
#[MEAN FREE PATHS (cm)]
#[Energy (eV)     | Rayleigh        | Compton         | Photoelectric   | TOTAL (+pair prod) (cm) | Rayleigh: max cumul prob F^2]
5.000000000000000000e+03 1.751440798958954215e+00 8.460168530453920255e+00 2.263778904768523614e-02 2.229004108654552077e-02 3.441358249737409558e-01
5.005000000000000000e+03 1.753427340707728543e+00 8.454410140585395084e+00 2.270587790713849558e-02 2.235633414932025262e-02 3.443933094956571628e-01
5.010000000000000000e+03 1.755415076633995763e+00 8.448668063390920580e+00 2.277410775041312924e-02 2.242276065378450908e-02 3.446504981837174575e-01
5.015000000000000000e+03 1.757404005813933301e+00 8.442942234186142869e+00 2.284247873616260249e-02 2.248932073398640305e-02 3.449073917123399724e-01
5.020000000000000000e+03 1.759394127325905055e+00 8.437232588616312867e+00 2.291099102306233190e-02 2.255601452393804843e-02 3.451639907553353259e-01
5.025000000000000000e+03 1.761385440250450074e+00 8.431539062654254124e+00 2.297964476980920295e-02 2.262284215761491482e-02 3.454202959858996280e-01
5.030000000000000000e+03 1.763377943670296544e+00 8.425861592598279159e+00 2.304844013512251724e-02 2.268980376895660470e-02 3.456763080766070417e-01
5.035000000000000000e+03 1.765371636670336031e+00 8.420200115070212377e+00 2.311737727774291346e-02 2.275689949186590622e-02 3.459320276994033438e-01
5.040000000000000000e+03 1.767366518337630810e+00 8.414554567013324160e+00 2.318645635643324168e-02 2.282412946020935876e-02 3.461874555255989860e-01
5.045000000000000000e+03 1.769362587761388772e+00 8.408924885690412410e+00 2.325567752997765095e-02 2.289149380781637863e-02 3.464425922258621005e-01
5.050000000000000000e+03 1.771359844032971642e+00 8.403311008681743743e+00 2.332504095718210962e-02 2.295899266847964762e-02 3.466974384702117273e-01
5.055000000000000000e+03 1.773358286245886317e+00 8.397712873883122597e+00 2.339454679687443320e-02 2.302662617595513384e-02 3.469519949280115978e-01
5.060000000000000000e+03 1.775357913495766216e+00 8.392130419503962102e+00 2.346419520790371180e-02 2.309439446396128678e-02 3.472062622679632504e-01
5.065000000000000000e+03 1.777358724880386598e+00 8.386563584065298116e+00 2.353398634914088960e-02 2.316229766617967575e-02 3.474602411580994255e-01
5.070000000000000000e+03 1.779360719499623489e+00 8.381012306397904510e+00 2.360392037947816116e-02 2.323033591625421959e-02 3.477139322657777920e-01
5.075000000000000000e+03 1.781363896455478768e+00 8.375476525640364045e+00 2.367399745782936341e-02 2.329850934779153365e-02 3.479673362576746198e-01
5.080000000000000000e+03 1.783368254852059298e+00 8.369956181237172999e+00 2.374421774312976061e-02 2.336681809436059326e-02 3.482204537997781735e-01
5.085000000000000000e+03 1.785373793795564934e+00 8.364451212936868885e+00 2.381458139433599228e-02 2.343526228949263657e-02 3.484732855573829391e-01
5.090000000000000000e+03 1.787380512394286303e+00 8.358961560790161727e+00 2.388508857042597952e-02 2.350384206668090434e-02 3.487258321950830742e-01
5.095000000000000000e+03 1.789388409758593701e+00 8.353487165148077764e+00 2.395573943039889728e-02 2.357255755938070588e-02 3.489780943767661903e-01
5.100000000000000000e+03 1.791397485000940204e+00 8.348027966660097832e+00 2.402653413327545534e-02 2.364140890100936351e-02 3.492300727656078574e-01
5.105000000000000000e+03 1.793407737235838129e+00 8.342583906272361460e+00 2.409747283809738835e-02 2.371039622494581361e-02 3.494817680240650537e-01
5.110000000000000000e+03 1.795419165579860810e+00 8.337154925225842561e+00 2.416855570392753907e-02 2.377951966453052679e-02 3.497331808138705589e-01
5.115000000000000000e+03 1.797431769151637715e+00 8.331740965054518000e+00 2.423978288985028165e-02 2.384877935306585484e-02 3.499843117960269590e-01
5.120000000000000000e+03 1.799445547071836016e+00 8.326341967583617887e+00 2.431115455497073058e-02 2.391817542381515643e-02 3.502351616308009286e-01
5.125000000000000000e+03 1.801460498463158144e+00 8.320957874927845666e+00 2.438267085841514317e-02 2.398770801000312675e-02 3.504857309777174579e-01
5.130000000000000000e+03 1.803476622450329359e+00 8.315588629489594652e+00 2.445433195933074261e-02 2.405737724481549558e-02 3.507360204955543015e-01
5.135000000000000000e+03 1.805493918160110178e+00 8.310234173957189441e+00 2.452613801688606834e-02 2.412718326139932923e-02 3.509860308423362607e-01
5.140000000000000000e+03 1.807512384721256415e+00 8.304894451303191261e+00 2.459808919027027529e-02 2.419712619286222555e-02 3.512357626753295770e-01
5.145000000000000000e+03 1.809532021264526058e+00 8.299569404782648263e+00 2.467018563869337669e-02 2.426720617227247356e-02 3.514852166510366027e-01
5.150000000000000000e+03 1.811552826922687265e+00 8.294258977931338706e+00 2.474242752138672632e-02 2.433742333265945593e-02 3.517343934251903614e-01
5.155000000000000000e+03 1.813574800830473066e+00 8.288963114564165124e+00 2.481481499760183548e-02 2.440777780701237909e-02 3.519832936527491629e-01
5.160000000000000000e+03 1.815597942124610009e+00 8.283681758773381532e+00 2.488734822661151785e-02 2.447826972828134190e-02 3.522319179878911077e-01
5.165000000000000000e+03 1.817622249943786850e+00 8.278414854926953836e+00 2.496002736770911584e-02 2.454889922937642313e-02 3.524802670840093133e-01
5.170000000000000000e+03 1.819647723428655217e+00 8.273162347666884742e+00 2.503285258020876078e-02 2.461966644316790701e-02 3.527283415937063071e-01
5.175000000000000000e+03 1.821674361721820068e+00 8.267924181907559955e+00 2.510582402344519251e-02 2.469057150248604032e-02 3.529761421687890866e-01
5.180000000000000000e+03 1.823702163967823919e+00 8.262700302834135258e+00 2.517894185677373511e-02 2.476161454012082777e-02 3.532236694602640115e-01
5.185000000000000000e+03 1.825731129313149514e+00 8.257490655900859622e+00 2.525220623957030036e-02 2.483279568882203886e-02 3.534709241183319195e-01
5.190000000000000000e+03 1.827761256906209608e+00 8.252295186829469387e+00 2.532561733123164793e-02 2.490411508129934670e-02 3.537179067923829079e-01
5.195000000000000000e+03 1.829792545897326983e+00 8.247113841607621509e+00 2.539917529117462561e-02 2.497557285022147799e-02 3.539646181309918371e-01
5.200000000000000000e+03 1.831824995438735337e+00 8.241946566487255765e+00 2.547288027883671049e-02 2.504716912821668140e-02 3.542110587819132794e-01
5.205000000000000000e+03 1.833858604684566407e+00 8.236793307983026224e+00 2.554673245367586332e-02 2.511890404787245692e-02 3.544572293920765782e-01
5.210000000000000000e+03 1.835893372790854183e+00 8.231654012870709636e+00 2.562073197517046250e-02 2.519077774173545184e-02 3.547031306075814627e-01
5.215000000000000000e+03 1.837929298915500276e+00 8.226528628185686642e+00 2.569487900281903006e-02 2.526279034231109291e-02 3.549487630736932187e-01
5.220000000000000000e+03 1.839966382218285457e+00 8.221417101221350165e+00 2.576917369614061676e-02 2.533494198206385356e-02 3.551941274348380806e-01
5.225000000000000000e+03 1.842004621860857894e+00 8.216319379527583067e+00 2.584361621467436143e-02 2.540723279341676119e-02 3.554392243345987357e-01
5.230000000000000000e+03 1.844044017006716940e+00 8.211235410909221599e+00 2.591820671797984837e-02 2.547966290875160883e-02 3.556840544157098827e-01
5.235000000000000000e+03 1.846084566821207806e+00 8.206165143424550834e+00 2.599294536563665978e-02 2.555223246040852492e-02 3.559286183200536802e-01
5.240000000000000000e+03 1.848126270471517563e+00 8.201108525383787651e+00 2.606783231724456654e-02 2.562494158068594902e-02 3.561729166886552500e-01
5.245000000000000000e+03 1.850169127126657820e+00 8.196065505347558400e+00 2.614286773242370521e-02 2.569779040184083999e-02 3.564169501616786251e-01
5.250000000000000000e+03 1.852213135957456958e+00 8.191036032125483146e+00 2.621805177081377655e-02 2.577077905608771147e-02 3.566607193784224750e-01
5.255000000000000000e+03 1.854258296136559458e+00 8.186020054774607146e+00 2.629338459207515924e-02 2.584390767559967619e-02 3.569042249773154984e-01
5.260000000000000000e+03 1.856304606838398152e+00 8.181017522598027725e+00 2.636886635588761227e-02 2.591717639250706862e-02 3.571474675959127043e-01
5.265000000000000000e+03 1.858352067239206207e+00 8.176028385143364829e+00 2.644449722195113539e-02 2.599058533889822900e-02 3.573904478708911370e-01
5.270000000000000000e+03 1.860400676516997365e+00 8.171052592201347053e+00 2.652027734998570890e-02 2.606413464681910097e-02 3.576331664380454356e-01
5.275000000000000000e+03 1.862450433851557285e+00 8.166090093804374561e+00 2.659620689973117569e-02 2.613782444827311702e-02 3.578756239322845589e-01
5.280000000000000000e+03 1.864501338424430221e+00 8.161140840225096227e+00 2.667228603094706427e-02 2.621165487522086543e-02 3.581178209876271779e-01
5.285000000000000000e+03 1.866553389418919906e+00 8.156204781974986773e+00 2.674851490341297044e-02 2.628562605958038520e-02 3.583597582371981227e-01
5.290000000000000000e+03 1.868606586020062910e+00 8.151281869802954105e+00 2.682489367692782525e-02 2.635973813322637846e-02 3.586014363132242755e-01
5.295000000000000000e+03 1.870660927414645291e+00 8.146372054693912901e+00 2.690142251131086293e-02 2.643399122799108131e-02 3.588428558470311280e-01
5.300000000000000000e+03 1.872716412791161300e+00 8.141475287867450561e+00 2.697810156640037538e-02 2.650838547566288644e-02 3.590840174690385078e-01
5.305000000000000000e+03 1.874773041339835133e+00 8.136591520776375930e+00 2.705493100205501669e-02 2.658292100798764074e-02 3.593249218087572472e-01
5.310000000000000000e+03 1.876830812252580971e+00 8.131720705105456304e+00 2.713191097815215863e-02 2.665759795666687582e-02 3.595655694947855197e-01
5.315000000000000000e+03 1.878889724723025845e+00 8.126862792769923516e+00 2.720904165458975371e-02 2.673241645335952890e-02 3.598059611548049541e-01
5.320000000000000000e+03 1.880949777946461676e+00 8.122017735914280223e+00 2.728632319128432640e-02 2.680737662967993748e-02 3.600460974155773042e-01
5.325000000000000000e+03 1.883010971119879029e+00 8.117185486910813097e+00 2.736375574817277376e-02 2.688247861719947340e-02 3.602859789029408955e-01
5.330000000000000000e+03 1.885073303441914927e+00 8.112365998358386676e+00 2.744133948521064112e-02 2.695772254744482205e-02 3.605256062418071838e-01
5.335000000000000000e+03 1.887136774112872839e+00 8.107559223081024058e+00 2.751907456237348906e-02 2.703310855189910988e-02 3.607649800561570919e-01
5.340000000000000000e+03 1.889201382334708246e+00 8.102765114126661672e+00 2.759696113965613012e-02 2.710863676200124181e-02 3.610041009690379554e-01
5.345000000000000000e+03 1.891267127310993112e+00 8.097983624765833000e+00 2.767499937707236166e-02 2.718430730914541196e-02 3.612429696025600268e-01
5.350000000000000000e+03 1.893334008246952971e+00 8.093214708490334530e+00 2.775318943465593380e-02 2.726012032468201965e-02 3.614815865778933102e-01
5.355000000000000000e+03 1.895402024349401415e+00 8.088458319012016062e+00 2.783153147245908191e-02 2.733607593991609422e-02 3.617199525152641204e-01
5.360000000000000000e+03 1.897471174826786289e+00 8.083714410261414685e+00 2.791002565055405657e-02 2.741217428610881468e-02 3.619580680339520851e-01
5.365000000000000000e+03 1.899541458889129508e+00 8.078982936386575275e+00 2.798867212903165605e-02 2.748841549447584090e-02 3.621959337522869249e-01
5.370000000000000000e+03 1.901612875748057707e+00 8.074263851751707577e+00 2.806747106800237812e-02 2.756479969618847933e-02 3.624335502876454562e-01
5.375000000000000000e+03 1.903685424616759603e+00 8.069557110936024458e+00 2.814642262759533067e-02 2.764132702237242015e-02 3.626709182564483158e-01
5.380000000000000000e+03 1.905759104709996210e+00 8.064862668732434514e+00 2.822552696795896029e-02 2.771799760410843805e-02 3.629080382741571853e-01
5.385000000000000000e+03 1.907833915244085965e+00 8.060180480146325266e+00 2.830478424926072961e-02 2.779481157243195166e-02 3.631449109552717380e-01
5.390000000000000000e+03 1.909909855436897175e+00 8.055510500394339246e+00 2.838419463168726994e-02 2.787176905833308252e-02 3.633815369133266970e-01
5.395000000000000000e+03 1.911986924507822483e+00 8.050852684903174961e+00 2.846375827544383313e-02 2.794887019275605483e-02 3.636179167608889484e-01
5.400000000000000000e+03 1.914065121677794412e+00 8.046206989308354096e+00 2.854347534075502360e-02 2.802611510659977490e-02 3.638540511095548768e-01
5.405000000000000000e+03 1.916144446169248283e+00 8.041573369453054454e+00 2.862334598786373321e-02 2.810350393071676944e-02 3.640899405699472569e-01
5.410000000000000000e+03 1.918224897206132873e+00 8.036951781386864724e+00 2.870337037703232785e-02 2.818103679591416749e-02 3.643255857517128105e-01
5.415000000000000000e+03 1.920306474013889986e+00 8.032342181364652944e+00 2.878354866854168637e-02 2.825871383295274625e-02 3.645609872635193205e-01
5.420000000000000000e+03 1.922389175819442464e+00 8.027744525845367463e+00 2.886388102269145384e-02 2.833653517254707335e-02 3.647961457130530771e-01
5.425000000000000000e+03 1.924473001851192855e+00 8.023158771490868091e+00 2.894436759980011792e-02 2.841450094536543056e-02 3.650310617070162689e-01
5.430000000000000000e+03 1.926557951339007202e+00 8.018584875164771475e+00 2.902500856020493250e-02 2.849261128202973739e-02 3.652657358511241514e-01
5.435000000000000000e+03 1.928644023514198391e+00 8.014022793931301791e+00 2.910580406426151179e-02 2.857086631311499259e-02 3.655001687501030494e-01
5.440000000000000000e+03 1.930731217609535033e+00 8.009472485054127233e+00 2.918675427234461439e-02 2.864926616915002000e-02 3.657343610076871365e-01
5.445000000000000000e+03 1.932819532859201495e+00 8.004933905995274657e+00 2.926785934484689780e-02 2.872781098061611207e-02 3.659683132266165484e-01
5.450000000000000000e+03 1.934908968498817661e+00 8.000407014413919882e+00 2.934911944218022289e-02 2.880650087794815739e-02 3.662020260086348289e-01
5.455000000000000000e+03 1.936999523765414510e+00 7.995891768165336977e+00 2.943053472477474147e-02 2.888533599153381148e-02 3.664354999544864877e-01
5.460000000000000000e+03 1.939091197897414132e+00 7.991388125299757839e+00 2.951210535307887892e-02 2.896431645171327826e-02 3.666687356639145579e-01
5.465000000000000000e+03 1.941183990134641490e+00 7.986896044061254862e+00 2.959383148755986848e-02 2.904344238877973328e-02 3.669017337356585418e-01
5.470000000000000000e+03 1.943277899718293567e+00 7.982415482886668023e+00 2.967571328870308167e-02 2.912271393297864719e-02 3.671344947674521353e-01
5.475000000000000000e+03 1.945372925890940241e+00 7.977946400404490213e+00 2.975775091701237871e-02 2.920213121450795576e-02 3.673670193560206187e-01
5.480000000000000000e+03 1.947469067896514527e+00 7.973488755433775665e+00 2.983994453301008071e-02 2.928169436351804947e-02 3.675993080970792470e-01
5.485000000000000000e+03 1.949566324980289034e+00 7.969042506983113228e+00 2.992229429723648054e-02 2.936140351011111080e-02 3.678313615853306962e-01
5.490000000000000000e+03 1.951664696388875075e+00 7.964607614249503698e+00 3.000480037025026261e-02 2.944125878434143001e-02 3.680631804144630648e-01
5.495000000000000000e+03 1.953764181370224229e+00 7.960184036617290460e+00 3.008746291262880471e-02 2.952126031621571389e-02 3.682947651771479869e-01
5.500000000000000000e+03 1.955864779173586143e+00 7.955771733657184264e+00 3.017028208496673469e-02 2.960140823569146207e-02 3.685261164650384114e-01
5.505000000000000000e+03 1.957966489049531411e+00 7.951370665125099713e+00 3.025325804787777975e-02 2.968170267267877110e-02 3.687572348687664370e-01
5.510000000000000000e+03 1.960069310249916263e+00 7.946980790961209351e+00 3.033639096199318430e-02 2.976214375703859286e-02 3.689881209779418691e-01
5.515000000000000000e+03 1.962173242027888787e+00 7.942602071288853871e+00 3.041968098796265021e-02 2.984273161858371631e-02 3.692187753811498885e-01
5.520000000000000000e+03 1.964278283637862277e+00 7.938234466413546464e+00 3.050312828645355620e-02 2.992346638707778575e-02 3.694491986659492744e-01
5.525000000000000000e+03 1.966384434335520126e+00 7.933877936821924770e+00 3.058673301815150250e-02 3.000434819223580726e-02 3.696793914188705732e-01
5.530000000000000000e+03 1.968491693377792506e+00 7.929532443180750789e+00 3.067049534376004027e-02 3.008537716372370469e-02 3.699093542254142108e-01
5.535000000000000000e+03 1.970600060022858591e+00 7.925197946335907240e+00 3.075441542400079303e-02 3.016655343115846183e-02 3.701390876700489940e-01
5.540000000000000000e+03 1.972709533530121906e+00 7.920874407311378818e+00 3.083849341961302643e-02 3.024787712410758819e-02 3.703685923362100008e-01
5.545000000000000000e+03 1.974820113160207224e+00 7.916561787308275200e+00 3.092272949135406457e-02 3.032934837208934101e-02 3.705978688062970816e-01
5.550000000000000000e+03 1.976931798174947019e+00 7.912260047703846055e+00 3.100712379999884249e-02 3.041096730457228808e-02 3.708269176616731944e-01
5.555000000000000000e+03 1.979044587837381242e+00 7.907969150050461415e+00 3.109167650634059310e-02 3.049273405097587680e-02 3.710557394826626276e-01
5.560000000000000000e+03 1.981158481411718686e+00 7.903689056074711949e+00 3.117638777118951487e-02 3.057464874066899430e-02 3.712843348485496686e-01
5.565000000000000000e+03 1.983273478163367187e+00 7.899419727676343150e+00 3.126125775537428458e-02 3.065671150297138298e-02 3.715127043375767713e-01
5.570000000000000000e+03 1.985389577358884328e+00 7.895161126927377815e+00 3.134628661974089847e-02 3.073892246715245746e-02 3.717408485269429463e-01
5.575000000000000000e+03 1.987506778265986984e+00 7.890913216071113290e+00 3.143147452515303308e-02 3.082128176243147805e-02 3.719687679928026514e-01
5.580000000000000000e+03 1.989625080153533565e+00 7.886675957521196878e+00 3.151682163249184404e-02 3.090378951797732171e-02 3.721964633102641251e-01
5.585000000000000000e+03 1.991744482291523344e+00 7.882449313860643514e+00 3.160232810265649339e-02 3.098644586290889499e-02 3.724239350533877779e-01
5.590000000000000000e+03 1.993864983951073810e+00 7.878233247840953801e+00 3.168799409656337246e-02 3.106925092629425969e-02 3.726511837951849149e-01
5.595000000000000000e+03 1.995986584404405351e+00 7.874027722381142347e+00 3.177381977514624756e-02 3.115220483715074040e-02 3.728782101076165700e-01
5.600000000000000000e+03 1.998109282924852792e+00 7.869832700566816719e+00 3.185980529935676653e-02 3.123530772444526801e-02 3.731050145615917302e-01
5.605000000000000000e+03 2.000233078786827434e+00 7.865648145649283052e+00 3.194595083016350118e-02 3.131855971709333192e-02 3.733315977269666130e-01
5.610000000000000000e+03 2.002357971265828152e+00 7.861474021044599247e+00 3.203225652855299505e-02 3.140196094396001392e-02 3.735579601725427246e-01
5.615000000000000000e+03 2.004483959638419854e+00 7.857310290332689462e+00 3.211872255552881972e-02 3.148551153385888840e-02 3.737841024660661926e-01
5.620000000000000000e+03 2.006611043182222609e+00 7.853156917256439051e+00 3.220534907211194259e-02 3.156921161555229643e-02 3.740100251742261572e-01
5.625000000000000000e+03 2.008739221175892542e+00 7.849013865720813499e+00 3.229213623934037991e-02 3.165306131775093984e-02 3.742357288626537715e-01
5.630000000000000000e+03 2.010868492899140492e+00 7.844881099791915169e+00 3.237908421827002253e-02 3.173706076911457508e-02 3.744612140959211466e-01
5.635000000000000000e+03 2.012998857632685379e+00 7.840758583696169737e+00 3.246619316997342852e-02 3.182121009825075730e-02 3.746864814375399644e-01
5.640000000000000000e+03 2.015130314658264421e+00 7.836646281819403370e+00 3.255346325554057951e-02 3.190550943371549958e-02 3.749115314499604779e-01
5.645000000000000000e+03 2.017262863258614036e+00 7.832544158705982085e+00 3.264089463607862396e-02 3.198995890401286346e-02 3.751363646945707342e-01
5.650000000000000000e+03 2.019396502717462738e+00 7.828452179057951099e+00 3.272848747271171754e-02 3.207455863759478554e-02 3.753609817316950759e-01
5.655000000000000000e+03 2.021531232319518701e+00 7.824370307734163532e+00 3.281624192658109951e-02 3.215930876286103579e-02 3.755853831205933635e-01
5.660000000000000000e+03 2.023667051350453328e+00 7.820298509749426863e+00 3.290415815884509959e-02 3.224420940815909270e-02 3.758095694194601988e-01
5.665000000000000000e+03 2.025803959096907469e+00 7.816236750273658274e+00 3.299223633067931150e-02 3.232926070178426814e-02 3.760335411854235366e-01
5.670000000000000000e+03 2.027941954846463446e+00 7.812184994631028445e+00 3.308047660327610717e-02 3.241446277197912451e-02 3.762572989745442964e-01
5.675000000000000000e+03 2.030081037887627726e+00 7.808143208299149762e+00 3.316887913784444253e-02 3.249981574693318331e-02 3.764808433418149747e-01
5.680000000000000000e+03 2.032221207509849137e+00 7.804111356908190800e+00 3.325744409561087744e-02 3.258531975478383413e-02 3.767041748411589785e-01
5.685000000000000000e+03 2.034362463003475785e+00 7.800089406240120482e+00 3.334617163781827126e-02 3.267097492361496769e-02 3.769272940254299598e-01
5.690000000000000000e+03 2.036504803659772378e+00 7.796077322227799478e+00 3.343506192572679586e-02 3.275678138145785012e-02 3.771502014464108155e-01
5.695000000000000000e+03 2.038648228770879811e+00 7.792075070954235905e+00 3.352411512061308219e-02 3.284273925629026258e-02 3.773728976548128555e-01
5.700000000000000000e+03 2.040792737629826270e+00 7.788082618651749556e+00 3.361333138377051166e-02 3.292884867603660531e-02 3.775953832002753030e-01
5.705000000000000000e+03 2.042938329530515684e+00 7.784099931701126351e+00 3.370271087650963948e-02 3.301510976856826540e-02 3.778176586313644059e-01
5.710000000000000000e+03 2.045085003767698417e+00 7.780126976630876712e+00 3.379225376015723703e-02 3.310152266170257596e-02 3.780397244955727154e-01
5.715000000000000000e+03 2.047232759636979260e+00 7.776163720116395339e+00 3.388196019605686782e-02 3.318808748320332264e-02 3.782615813393184201e-01
5.720000000000000000e+03 2.049381596434798780e+00 7.772210128979187616e+00 3.397183034556897074e-02 3.327480436078063958e-02 3.784832297079446795e-01
5.725000000000000000e+03 2.051531513458424438e+00 7.768266170186069353e+00 3.406186437007045070e-02 3.336167342209062081e-02 3.787046701457194020e-01
5.730000000000000000e+03 2.053682510005934603e+00 7.764331810848403848e+00 3.415206243095477573e-02 3.344869479473522311e-02 3.789259031958338575e-01
5.735000000000000000e+03 2.055834585376205670e+00 7.760407018221314956e+00 3.424242468963160230e-02 3.353586860626191213e-02 3.791469294004028989e-01
5.740000000000000000e+03 2.057987738868921390e+00 7.756491759702900168e+00 3.433295130752786473e-02 3.362319498416453667e-02 3.793677493004640744e-01
5.745000000000000000e+03 2.060141969784528015e+00 7.752586002833494305e+00 3.442364244608604046e-02 3.371067405588159399e-02 3.795883634359768499e-01
5.750000000000000000e+03 2.062297277424261832e+00 7.748689715294864833e+00 3.451449826676592642e-02 3.379830594879783962e-02 3.798087723458227205e-01
5.755000000000000000e+03 2.064453661090103864e+00 7.744802864909497764e+00 3.460551893104315407e-02 3.388609079024277465e-02 3.800289765678042664e-01
5.760000000000000000e+03 2.066611120084784758e+00 7.740925419639830274e+00 3.469670460040974458e-02 3.397402870749107601e-02 3.802489766386449310e-01
5.765000000000000000e+03 2.068769653711774570e+00 7.737057347587482425e+00 3.478805543637423364e-02 3.406211982776259639e-02 3.804687730939884660e-01
5.770000000000000000e+03 2.070929261275274325e+00 7.733198616992531527e+00 3.487957160046149113e-02 3.415036427822214227e-02 3.806883664683986535e-01
5.775000000000000000e+03 2.073089942080190262e+00 7.729349196232782049e+00 3.497125325421234637e-02 3.423876218597905058e-02 3.809077572953587509e-01
5.780000000000000000e+03 2.075251695432141386e+00 7.725509053823009786e+00 3.506310055918421265e-02 3.432731367808748713e-02 3.811269461072716580e-01
5.785000000000000000e+03 2.077414520637439033e+00 7.721678158414239768e+00 3.515511367695058759e-02 3.441601888154618982e-02 3.813459334354588059e-01
5.790000000000000000e+03 2.079578417003069113e+00 7.717856478793040154e+00 3.524729276910090053e-02 3.450487792329796216e-02 3.815647198101605464e-01
5.795000000000000000e+03 2.081743383836693884e+00 7.714043983880775279e+00 3.533963799724090110e-02 3.459389093023009648e-02 3.817833057605354852e-01
5.800000000000000000e+03 2.083909420446635963e+00 7.710240642732902216e+00 3.543214952299247877e-02 3.468305802917401315e-02 3.820016918146603713e-01
5.805000000000000000e+03 2.086076526141875220e+00 7.706446424538247797e+00 3.552482750799373229e-02 3.477237934690530913e-02 3.822198784995299858e-01
5.810000000000000000e+03 2.088244700232007478e+00 7.702661298618342478e+00 3.561767211389818555e-02 3.486185501014284899e-02 3.824378663410565315e-01
5.815000000000000000e+03 2.090413942027281369e+00 7.698885234426649404e+00 3.571068350237605049e-02 3.495148514554994451e-02 3.826556558640699102e-01
5.820000000000000000e+03 2.092584250838545934e+00 7.695118201547932912e+00 3.580386183511305442e-02 3.504126987973307794e-02 3.828732475923172784e-01
5.825000000000000000e+03 2.094755625977258173e+00 7.691360169697517790e+00 3.589720727381102983e-02 3.513120933924238076e-02 3.830906420484631036e-01
5.830000000000000000e+03 2.096928066755471498e+00 7.687611108720636466e+00 3.599071998018752577e-02 3.522130365057117574e-02 3.833078397540886639e-01
5.835000000000000000e+03 2.099101572485825073e+00 7.683870988591710471e+00 3.608440011597621733e-02 3.531155294015628221e-02 3.835248412296925480e-01
5.840000000000000000e+03 2.101276142481532272e+00 7.680139779413682533e+00 3.617824784292653778e-02 3.540195733437756509e-02 3.837416469946899888e-01
5.845000000000000000e+03 2.103451776056364686e+00 7.676417451417345994e+00 3.627226332280372029e-02 3.549251695955783770e-02 3.839582575674131970e-01
5.850000000000000000e+03 2.105628472524637029e+00 7.672703974960686679e+00 3.636644671738840928e-02 3.558323194196247319e-02 3.841746734651111939e-01
5.855000000000000000e+03 2.107806231201218239e+00 7.668999320528175900e+00 3.646079818847729886e-02 3.567410240779982783e-02 3.843908952039497007e-01
5.860000000000000000e+03 2.109985051401500833e+00 7.665303458730122976e+00 3.655531789788298708e-02 3.576512848322106058e-02 3.846069232990112496e-01
5.865000000000000000e+03 2.112164932441390697e+00 7.661616360302041961e+00 3.665000600743306691e-02 3.585631029431918249e-02 3.848227582642954059e-01
5.870000000000000000e+03 2.114345873637311968e+00 7.657937996103947320e+00 3.674486267897150021e-02 3.594764796713020849e-02 3.850384006127184344e-01
5.875000000000000000e+03 2.116527874306178170e+00 7.654268337119742860e+00 3.683988807435753521e-02 3.603914162763207502e-02 3.852538508561134667e-01
5.880000000000000000e+03 2.118710933765385551e+00 7.650607354456565368e+00 3.693508235546562324e-02 3.613079140174447340e-02 3.854691095052308336e-01
5.885000000000000000e+03 2.120895051332816639e+00 7.646955019344110482e+00 3.703044568418644572e-02 3.622259741532968952e-02 3.856841770697378990e-01
5.890000000000000000e+03 2.123080226326808706e+00 7.643311303134038504e+00 3.712597822242558882e-02 3.631455979419125762e-02 3.858990540582194484e-01
5.895000000000000000e+03 2.125266458066153774e+00 7.639676177299312698e+00 3.722168013210427895e-02 3.640667866407460568e-02 3.861137409781774110e-01
5.900000000000000000e+03 2.127453745870094171e+00 7.636049613433561589e+00 3.731755157515941751e-02 3.649895415066691656e-02 3.863282383360315819e-01
5.905000000000000000e+03 2.129642089058292775e+00 7.632431583250471441e+00 3.741359271354283839e-02 3.659138637959637175e-02 3.865425466371193441e-01
5.910000000000000000e+03 2.131831486950846344e+00 7.628822058583134336e+00 3.750980370922229329e-02 3.668397547643302559e-02 3.867566663856960574e-01
5.915000000000000000e+03 2.134021938868252199e+00 7.625221011383467307e+00 3.760618472418042479e-02 3.677672156668762571e-02 3.869705980849352245e-01
5.920000000000000000e+03 2.136213444131410455e+00 7.621628413721564854e+00 3.770273592041507166e-02 3.686962477581189751e-02 3.871843422369288801e-01
5.925000000000000000e+03 2.138406002061621347e+00 7.618044237785074557e+00 3.779945745994015699e-02 3.696268522919928662e-02 3.873978993426876460e-01
5.930000000000000000e+03 2.140599611980539496e+00 7.614468455878644626e+00 3.789634950478363434e-02 3.705590305218284253e-02 3.876112699021412311e-01
5.935000000000000000e+03 2.142794273210215206e+00 7.610901040423240005e+00 3.799341221698972898e-02 3.714927837003732802e-02 3.878244544141384309e-01
5.940000000000000000e+03 2.144989985073034955e+00 7.607341963955619235e+00 3.809064575861713375e-02 3.724281130797731099e-02 3.880374533764476275e-01
5.945000000000000000e+03 2.147186746891751152e+00 7.603791199127669209e+00 3.818805029174032750e-02 3.733650199115847584e-02 3.882502672857571779e-01
5.950000000000000000e+03 2.149384557989427957e+00 7.600248718705868711e+00 3.828562597844788196e-02 3.743035054467571537e-02 3.884628966376755810e-01
5.955000000000000000e+03 2.151583417689483468e+00 7.596714495570640047e+00 3.838337298084470300e-02 3.752435709356535115e-02 3.886753419267320320e-01
5.960000000000000000e+03 2.153783325315627106e+00 7.593188502715820576e+00 3.848129146104966453e-02 3.761852176280264248e-02 3.888876036463765340e-01
5.965000000000000000e+03 2.155984280191888036e+00 7.589670713248032996e+00 3.857938158119719047e-02 3.771284467730328521e-02 3.890996822889806750e-01
5.970000000000000000e+03 2.158186281642583637e+00 7.586161100386119571e+00 3.867764350343665114e-02 3.780732596192268313e-02 3.893115783458377388e-01
5.975000000000000000e+03 2.160389328992315061e+00 7.582659637460583468e+00 3.877607738993220365e-02 3.790196574145576758e-02 3.895232923071632603e-01
5.980000000000000000e+03 2.162593421565959684e+00 7.579166297912991901e+00 3.887468340286303475e-02 3.799676414063698354e-02 3.897348246620952472e-01
