#[MATERIAL DEFINITION FOR MC-GPU: interaction mean free path and sampling data from PENELOPE 2006]
#[MATERIAL NAME]
# glands_others(0.104:H_0.221:C_0.028:N_0.637:O_0.001:Na_0.002:P_0.003:S_0.002:Cl_0.002:K)
#[NOMINAL DENSITY (g/cm^3)]
# 1.03
#[NUMBER OF DATA VALUES]
# 24001
#[MEAN FREE PATHS (cm)]
#[Energy (eV)     | Rayleigh        | Compton         | Photoelectric   | TOTAL (+pair prod) (cm) | Rayleigh: max cumul prob F^2]
5.000000000000000000e+03 1.909867203555194015e+00 8.571216193975185860e+00 2.515312985215118965e-02 2.475446663937751896e-02 3.432567356665058855e-01
5.005000000000000000e+03 1.912034804963261614e+00 8.565541859633386323e+00 2.522884471340182400e-02 2.482811520153082804e-02 3.435138909727196155e-01
5.010000000000000000e+03 1.914203653069600719e+00 8.559883595891774277e+00 2.530471649300471484e-02 2.490191195294570031e-02 3.437707672613745102e-01
5.015000000000000000e+03 1.916373746518810872e+00 8.554241338880109069e+00 2.538074536800666997e-02 2.497585704187135422e-02 3.440273651943995814e-01
5.020000000000000000e+03 1.918545083957726272e+00 8.548615025053798888e+00 2.545693151548033759e-02 2.504995061651325156e-02 3.442836854329871521e-01
5.025000000000000000e+03 1.920717664035410888e+00 8.543004591191914798e+00 2.553327511252355062e-02 2.512419282503239662e-02 3.445397286375868617e-01
5.030000000000000000e+03 1.922891485403158907e+00 8.537409974395105294e+00 2.560977633626041611e-02 2.519858381554622787e-02 3.447954954678992823e-01
5.035000000000000000e+03 1.925066546714470306e+00 8.531831112083654745e+00 2.568643536384016338e-02 2.527312373612743829e-02 3.450509865828706446e-01
5.040000000000000000e+03 1.927242846625054407e+00 8.526267941995435251e+00 2.576325237243805993e-02 2.534781273480466932e-02 3.453062026406866214e-01
5.045000000000000000e+03 1.929420383792802784e+00 8.520720402184005948e+00 2.584022753925440535e-02 2.542265095956156018e-02 3.455611442987666093e-01
5.050000000000000000e+03 1.931599156877791712e+00 8.515188431016609272e+00 2.591736104151512454e-02 2.549763855833709139e-02 3.458158122137579005e-01
5.055000000000000000e+03 1.933779164542273943e+00 8.509671967172213414e+00 2.599465305647181285e-02 2.557277567902560209e-02 3.460702070415303533e-01
5.060000000000000000e+03 1.935960405450654953e+00 8.504170949639641819e+00 2.607210376140103522e-02 2.564806246947590532e-02 3.463243294371706194e-01
5.065000000000000000e+03 1.938142878269502489e+00 8.498685317715585441e+00 2.614971333360508257e-02 2.572349907749200623e-02 3.465781800549763703e-01
5.070000000000000000e+03 1.940326581667513262e+00 8.493215011002774872e+00 2.622748195041117031e-02 2.579908565083215491e-02 3.468317595484514126e-01
5.075000000000000000e+03 1.942511514315524268e+00 8.487759969408029903e+00 2.630540978917195877e-02 2.587482233720929739e-02 3.470850685702996929e-01
5.080000000000000000e+03 1.944697674886495475e+00 8.482320133140415663e+00 2.638349702726532423e-02 2.595070928429066975e-02 3.473381077724204125e-01
5.085000000000000000e+03 1.946885062055494053e+00 8.476895442709382777e+00 2.646174384209423400e-02 2.602674663969760382e-02 3.475908778059024762e-01
5.090000000000000000e+03 1.949073674499693043e+00 8.471485838922916400e+00 2.654015041108667011e-02 2.610293455100534676e-02 3.478433793210195524e-01
5.095000000000000000e+03 1.951263510898352704e+00 8.466091262885713675e+00 2.661871691169564666e-02 2.617927316574300209e-02 3.480956129672244659e-01
5.100000000000000000e+03 1.953454569932827178e+00 8.460711655997330993e+00 2.669744352139945265e-02 2.625576263139355049e-02 3.483475793931445907e-01
5.105000000000000000e+03 1.955646850286537175e+00 8.455346959950416519e+00 2.677633041770110384e-02 2.633240309539331206e-02 3.485992792465765766e-01
5.110000000000000000e+03 1.957840350644966865e+00 8.449997116728894753e+00 2.685537777812849539e-02 2.640919470513189080e-02 3.488507131744812972e-01
5.115000000000000000e+03 1.960035069695666321e+00 8.444662068606177741e+00 2.693458578023475575e-02 2.648613760795253888e-02 3.491018818229791321e-01
5.120000000000000000e+03 1.962231006128221988e+00 8.439341758143427796e+00 2.701395460159749379e-02 2.656323195115117483e-02 3.493527858373450812e-01
5.125000000000000000e+03 1.964428158634257127e+00 8.434036128187775816e+00 2.709348441981914574e-02 2.664047788197668881e-02 3.496034258620036583e-01
5.130000000000000000e+03 1.966626525907421597e+00 8.428745121870598211e+00 2.717317541252686763e-02 2.671787554763066508e-02 3.498538025405246166e-01
5.135000000000000000e+03 1.968826106643396301e+00 8.423468682605742330e+00 2.725302775737281982e-02 2.679542509526767688e-02 3.501039165156179522e-01
5.140000000000000000e+03 1.971026899539858990e+00 8.418206754087879773e+00 2.733304163203347306e-02 2.687312667199432195e-02 3.503537684291294085e-01
5.145000000000000000e+03 1.973228903296483372e+00 8.412959280290758457e+00 2.741321721420984792e-02 2.695098042486947579e-02 3.506033589220356461e-01
5.150000000000000000e+03 1.975432116614954881e+00 8.407726205465470670e+00 2.749355468162804558e-02 2.702898650090465593e-02 3.508526886344402462e-01
5.155000000000000000e+03 1.977636538198918270e+00 8.402507474138882770e+00 2.757405421203797807e-02 2.710714504706266542e-02 3.511017582055687147e-01
5.160000000000000000e+03 1.979842166754004928e+00 8.397303031111849947e+00 2.765471598321453395e-02 2.718545621025864750e-02 3.513505682737643188e-01
5.165000000000000000e+03 1.982049000987809118e+00 8.392112821457631711e+00 2.773554017295687749e-02 2.726392013735919051e-02 3.515991194764838124e-01
5.170000000000000000e+03 1.984257039609879092e+00 8.386936790520206131e+00 2.781652695908853890e-02 2.734253697518249787e-02 3.518474124502928846e-01
5.175000000000000000e+03 1.986466281331713990e+00 8.381774883912665786e+00 2.789767651945743512e-02 2.742130687049810361e-02 3.520954478308621627e-01
5.180000000000000000e+03 1.988676724866743184e+00 8.376627047515587066e+00 2.797898903193564088e-02 2.750022997002663297e-02 3.523432262529629377e-01
5.185000000000000000e+03 1.990888368930331165e+00 8.371493227475413690e+00 2.806046467441951353e-02 2.757930642043978850e-02 3.525907483504630013e-01
5.190000000000000000e+03 1.993101212239770215e+00 8.366373370202840221e+00 2.814210362482999495e-02 2.765853636836056173e-02 3.528380147563225377e-01
5.195000000000000000e+03 1.995315253514255316e+00 8.361267422371271962e+00 2.822390606111165046e-02 2.773791996036214028e-02 3.530850261025901826e-01
5.200000000000000000e+03 1.997530491474888148e+00 8.356175330915213806e+00 2.830587216123338704e-02 2.781745734296854275e-02 3.533317830203991372e-01
5.205000000000000000e+03 1.999746924844665985e+00 8.351097043028712363e+00 2.838800210318823125e-02 2.789714866265421284e-02 3.535782861399627830e-01
5.210000000000000000e+03 2.001964552348481252e+00 8.346032506163787446e+00 2.847029606499328416e-02 2.797699406584396378e-02 3.538245360905713510e-01
5.215000000000000000e+03 2.004183372713093547e+00 8.340981668028931040e+00 2.855275422468938826e-02 2.805699369891249961e-02 3.540705335005879251e-01
5.220000000000000000e+03 2.006403384667139189e+00 8.335944476587528129e+00 2.863537676034158888e-02 2.813714770818469268e-02 3.543162789974445559e-01
5.225000000000000000e+03 2.008624586941117673e+00 8.330920880056364553e+00 2.871816385003861383e-02 2.821745623993508409e-02 3.545617732076383755e-01
5.230000000000000000e+03 2.010846978267381679e+00 8.325910826904099338e+00 2.880111567189328273e-02 2.829791944038804671e-02 3.548070167567285993e-01
5.235000000000000000e+03 2.013070557380129078e+00 8.320914265849777891e+00 2.888423240404202133e-02 2.837853745571730299e-02 3.550520102693321411e-01
5.240000000000000000e+03 2.015295323015397599e+00 8.315931145861341633e+00 2.896751422464505579e-02 2.845931043204593183e-02 3.552967543691204488e-01
5.245000000000000000e+03 2.017521273911058177e+00 8.310961416154121650e+00 2.905096131188662084e-02 2.854023851544646925e-02 3.555412496788158960e-01
5.250000000000000000e+03 2.019748408806793627e+00 8.306005026189431817e+00 2.913457384397405425e-02 2.862132185193998202e-02 3.557854968201883405e-01
5.255000000000000000e+03 2.021976726444116412e+00 8.301061925673019815e+00 2.921835199913905973e-02 2.870256058749708766e-02 3.560294964140516272e-01
5.260000000000000000e+03 2.024206225566325124e+00 8.296132064553724206e+00 2.930229595563623932e-02 2.878395486803645223e-02 3.562732490802601459e-01
5.265000000000000000e+03 2.026436904918531123e+00 8.291215393021948543e+00 2.938640589174405099e-02 2.886550483942566109e-02 3.565167554377058345e-01
5.270000000000000000e+03 2.028668763247634121e+00 8.286311861508275811e+00 2.947068198576455883e-02 2.894721064748075404e-02 3.567600161043143481e-01
5.275000000000000000e+03 2.030901799302315069e+00 8.281421420682040235e+00 2.955512441602323875e-02 2.902907243796604142e-02 3.570030316970424500e-01
5.280000000000000000e+03 2.033136011833027279e+00 8.276544021449923960e+00 2.963973336086883972e-02 2.911109035659373984e-02 3.572458028318743484e-01
5.285000000000000000e+03 2.035371399591997754e+00 8.271679614954548398e+00 2.972450899867376192e-02 2.919326454902437806e-02 3.574883301238186428e-01
5.290000000000000000e+03 2.037607961333202322e+00 8.266828152573111765e+00 2.980945150783328307e-02 2.927559516086574234e-02 3.577306141869054379e-01
5.295000000000000000e+03 2.039845695812381621e+00 8.261989585915959111e+00 2.989456106676658884e-02 2.935808233767394498e-02 3.579726556341831234e-01
5.300000000000000000e+03 2.042084601787006459e+00 8.257163866825283804e+00 2.997983785391544753e-02 2.944072622495190125e-02 3.582144550777153769e-01
5.305000000000000000e+03 2.044324678016302244e+00 8.252350947373686907e+00 3.006528204774558746e-02 2.952352696815058880e-02 3.584560131285781659e-01
5.310000000000000000e+03 2.046565923261200570e+00 8.247550779862915959e+00 3.015089382674495180e-02 2.960648471266727824e-02 3.586973303968569726e-01
5.315000000000000000e+03 2.048808336284382303e+00 8.242763316822417252e+00 3.023667336942570394e-02 2.968959960384731298e-02 3.589384074916437961e-01
5.320000000000000000e+03 2.051051915850211849e+00 8.237988511008129677e+00 3.032262085432199314e-02 2.977287178698187139e-02 3.591792450210343768e-01
5.325000000000000000e+03 2.053296660724792666e+00 8.233226315401031670e+00 3.040873645999204664e-02 2.985630140730980223e-02 3.594198435921254209e-01
5.330000000000000000e+03 2.055542569675900655e+00 8.228476683205943942e+00 3.049502036501610877e-02 2.993988861001568857e-02 3.596602038110118249e-01
5.335000000000000000e+03 2.057789641473019238e+00 8.223739567850135046e+00 3.058147274799809245e-02 3.002363354023107611e-02 3.599003262827839000e-01
5.340000000000000000e+03 2.060037874887320264e+00 8.219014922982077920e+00 3.066809378756462506e-02 3.010753634303369938e-02 3.601402116115249297e-01
5.345000000000000000e+03 2.062287268691632924e+00 8.214302702470156703e+00 3.075488366236486457e-02 3.019159716344699262e-02 3.603798604003085604e-01
5.350000000000000000e+03 2.064537821660486383e+00 8.209602860401352231e+00 3.084184255107148137e-02 3.027581614644101957e-02 3.606192732511957488e-01
5.355000000000000000e+03 2.066789532570042720e+00 8.204915351080048325e+00 3.092897063237902075e-02 3.036019343693079769e-02 3.608584507652329298e-01
5.360000000000000000e+03 2.069042400198148446e+00 8.200240129026671099e+00 3.101626808500570001e-02 3.044472917977782481e-02 3.610973935424490189e-01
5.365000000000000000e+03 2.071296423324279434e+00 8.195577148976536108e+00 3.110373508769170847e-02 3.052942351978839286e-02 3.613361021818532470e-01
5.370000000000000000e+03 2.073551600729568456e+00 8.190926365878516080e+00 3.119137181920047033e-02 3.061427660171472595e-02 3.615745772814326076e-01
5.375000000000000000e+03 2.075807931196771872e+00 8.186287734893893386e+00 3.127917845831746507e-02 3.069928857025362376e-02 3.618128194381495244e-01
5.380000000000000000e+03 2.078065413510278514e+00 8.181661211395066857e+00 3.136715518385106011e-02 3.078445957004724565e-02 3.620508292479394652e-01
5.385000000000000000e+03 2.080324046456100806e+00 8.177046750964359845e+00 3.145530217463209793e-02 3.086978974568254167e-02 3.622886073057089984e-01
5.390000000000000000e+03 2.082583828821872096e+00 8.172444309392799866e+00 3.154361960951410082e-02 3.095527924169136705e-02 3.625261542053330732e-01
5.395000000000000000e+03 2.084844759396818237e+00 8.167853842678942655e+00 3.163210766737265672e-02 3.104092820254976057e-02 3.627634705396530213e-01
5.400000000000000000e+03 2.087106836971783785e+00 8.163275307027644700e+00 3.172076652710623113e-02 3.112673677267860720e-02 3.630005569004744470e-01
5.405000000000000000e+03 2.089370060339190260e+00 8.158708658848921047e+00 3.180959636763498050e-02 3.121270509644243074e-02 3.632374138785651185e-01
5.410000000000000000e+03 2.091634428293060122e+00 8.154153854756716058e+00 3.189859736790205680e-02 3.129883331815042774e-02 3.634740420636526914e-01
5.415000000000000000e+03 2.093899939628993678e+00 8.149610851567764769e+00 3.198776970687256666e-02 3.138512158205546132e-02 3.637104420444228770e-01
5.420000000000000000e+03 2.096166593144160206e+00 8.145079606300441810e+00 3.207711356353385584e-02 3.147157003235417916e-02 3.639466144085172772e-01
5.425000000000000000e+03 2.098434387637303278e+00 8.140560076173578352e+00 3.216662911689555093e-02 3.155817881318692675e-02 3.641825597425315530e-01
5.430000000000000000e+03 2.100703321908727883e+00 8.136052218605341224e+00 3.225631654598951070e-02 3.164494806863759474e-02 3.644182786320132594e-01
5.435000000000000000e+03 2.102973394760285775e+00 8.131555991212087164e+00 3.234617602986937512e-02 3.173187794273304302e-02 3.646537716614602909e-01
5.440000000000000000e+03 2.105244604995390567e+00 8.127071351807215294e+00 3.243620774761141190e-02 3.181896857944390561e-02 3.648890394143186611e-01
5.445000000000000000e+03 2.107516951418979101e+00 8.122598258400095972e+00 3.252641187831317726e-02 3.190622012268302943e-02 3.651240824729808376e-01
5.450000000000000000e+03 2.109790432837539864e+00 8.118136669194884192e+00 3.261678860109489680e-02 3.199363271630679267e-02 3.653589014187840767e-01
5.455000000000000000e+03 2.112065048059084571e+00 8.113686542589460871e+00 3.270733809509851486e-02 3.208120650411409175e-02 3.655934968320084799e-01
5.460000000000000000e+03 2.114340795893141944e+00 8.109247837174335061e+00 3.279806053948765288e-02 3.216894162984609146e-02 3.658278692918752184e-01
5.465000000000000000e+03 2.116617675150767042e+00 8.104820511731510635e+00 3.288895611344822001e-02 3.225683823718674542e-02 3.660620193765451447e-01
5.470000000000000000e+03 2.118895684644517274e+00 8.100404525233450670e+00 3.298002499618757355e-02 3.234489646976195648e-02 3.662959476631169053e-01
5.475000000000000000e+03 2.121174823188454628e+00 8.095999836841967223e+00 3.307126736693506014e-02 3.243311647113981955e-02 3.665296547276254424e-01
5.480000000000000000e+03 2.123455089598146994e+00 8.091606405907144861e+00 3.316268340494190475e-02 3.252149838483053140e-02 3.667631411450402723e-01
5.485000000000000000e+03 2.125736482690640194e+00 8.087224191966321030e+00 3.325427328948063477e-02 3.261004235428566905e-02 3.669964074892640427e-01
5.490000000000000000e+03 2.128019001284466416e+00 8.082853154742984714e+00 3.334603719984558651e-02 3.269874852289854361e-02 3.672294543331310890e-01
5.495000000000000000e+03 2.130302644199654427e+00 8.078493254145717728e+00 3.343797531535329381e-02 3.278761703400451255e-02 3.674622822484058804e-01
5.500000000000000000e+03 2.132587410257681171e+00 8.074144450267223050e+00 3.353008781534074639e-02 3.287664803087914783e-02 3.676948918057815763e-01
5.505000000000000000e+03 2.134873298281509513e+00 8.069806703383207491e+00 3.362237487916758943e-02 3.296584165674024125e-02 3.679272835748785275e-01
5.510000000000000000e+03 2.137160307095550937e+00 8.065479973951397596e+00 3.371483668621426399e-02 3.305519805474589623e-02 3.681594581242431108e-01
5.515000000000000000e+03 2.139448435525681091e+00 8.061164222610507579e+00 3.380747341588309640e-02 3.314471736799552010e-02 3.683914160213462297e-01
5.520000000000000000e+03 2.141737682399214027e+00 8.056859410179230352e+00 3.390028524759745865e-02 3.323439973952878324e-02 3.686231578325821490e-01
5.525000000000000000e+03 2.144028046544914634e+00 8.052565497655214344e+00 3.399327236080229575e-02 3.332424531232613951e-02 3.688546841232668849e-01
5.530000000000000000e+03 2.146319526792979548e+00 8.048282446214077623e+00 3.408643493496386900e-02 3.341425422930834055e-02 3.690859954576373170e-01
5.535000000000000000e+03 2.148612121975042033e+00 8.044010217208398927e+00 3.417977314956991558e-02 3.350442663333658838e-02 3.693170923988498555e-01
5.540000000000000000e+03 2.150905830924155548e+00 8.039748772166744217e+00 3.427328718412913505e-02 3.359476266721185544e-02 3.695479755089792762e-01
5.545000000000000000e+03 2.153200652474795085e+00 8.035498072792666591e+00 3.436697721817164736e-02 3.368526247367521764e-02 3.697786453490174985e-01
5.550000000000000000e+03 2.155496585462844283e+00 8.031258080963750601e+00 3.446084343124852095e-02 3.377592619540729924e-02 3.700091024788724203e-01
5.555000000000000000e+03 2.157793628725608315e+00 8.027028758730612168e+00 3.455488600293252915e-02 3.386675397502890428e-02 3.702393474573669740e-01
5.560000000000000000e+03 2.160091781101772579e+00 8.022810068315996190e+00 3.464910511281665134e-02 3.395774595509937210e-02 3.704693808422380719e-01
5.565000000000000000e+03 2.162391041431441341e+00 8.018601972113735599e+00 3.474350094051576604e-02 3.404890227811821490e-02 3.706992031901353846e-01
5.570000000000000000e+03 2.164691408556095098e+00 8.014404432687875612e+00 3.483807366566538805e-02 3.414022308652368831e-02 3.709288150566205089e-01
5.575000000000000000e+03 2.166992881318603459e+00 8.010217412771686085e+00 3.493282346792203619e-02 3.423170852269306896e-02 3.711582169961659683e-01
5.580000000000000000e+03 2.169295458563210932e+00 8.006040875266755563e+00 3.502775052696296965e-02 3.432335872894230061e-02 3.713874095621541582e-01
5.585000000000000000e+03 2.171599139135547141e+00 8.001874783242014288e+00 3.512285502248690267e-02 3.441517384752650760e-02 3.716163933068766800e-01
5.590000000000000000e+03 2.173903921882602397e+00 7.997719099932859343e+00 3.521813713421299841e-02 3.450715402063898180e-02 3.718451687815331197e-01
5.595000000000000000e+03 2.176209805652723706e+00 7.993573788740204300e+00 3.531359704188112569e-02 3.459929939041127278e-02 3.720737365362306037e-01
5.600000000000000000e+03 2.178516789295628975e+00 7.989438813229573277e+00 3.540923492525240024e-02 3.469161009891356950e-02 3.723020971199825224e-01
5.605000000000000000e+03 2.180824871662374154e+00 7.985314137130199441e+00 3.550505096410804667e-02 3.478408628815356923e-02 3.725302510807080858e-01
5.610000000000000000e+03 2.183134051605371440e+00 7.981199724334108403e+00 3.560104533825070305e-02 3.487672810007751145e-02 3.727581989652314354e-01
5.615000000000000000e+03 2.185444327978372847e+00 7.977095538895238036e+00 3.569721822750322737e-02 3.496953567656903294e-02 3.729859413192808115e-01
5.620000000000000000e+03 2.187755699636461770e+00 7.973001545028535197e+00 3.579356981170924573e-02 3.506250915944943841e-02 3.732134786874879984e-01
5.625000000000000000e+03 2.190068165436047209e+00 7.968917707109101300e+00 3.589010027073263193e-02 3.515564869047719393e-02 3.734408116133874911e-01
5.630000000000000000e+03 2.192381724234878426e+00 7.964843989671257063e+00 3.598680978445849971e-02 3.524895441134875268e-02 3.736679406394160519e-01
5.635000000000000000e+03 2.194696374892010748e+00 7.960780357407730712e+00 3.608369853279185663e-02 3.534242646369709778e-02 3.738948663069116551e-01
5.640000000000000000e+03 2.197012116267819337e+00 7.956726775168757371e+00 3.618076669565846448e-02 3.543606498909242231e-02 3.741215891561133766e-01
5.645000000000000000e+03 2.199328947223986752e+00 7.952683207961215750e+00 3.627801445300447847e-02 3.552987012904180314e-02 3.743481097261606161e-01
5.650000000000000000e+03 2.201646866623497623e+00 7.948649620947795036e+00 3.637544198479634311e-02 3.562384202498888180e-02 3.745744285550924313e-01
5.655000000000000000e+03 2.203965873330638203e+00 7.944625979446128028e+00 3.647304947102082001e-02 3.571798081831378813e-02 3.748005461798469273e-01
5.660000000000000000e+03 2.206285966210982163e+00 7.940612248927941152e+00 3.657083709168505725e-02 3.581228665033305003e-02 3.750264631362614232e-01
5.665000000000000000e+03 2.208607144131402578e+00 7.936608395018227569e+00 3.666880502681675591e-02 3.590675966229970456e-02 3.752521799590708973e-01
5.670000000000000000e+03 2.210929405960051053e+00 7.932614383494398069e+00 3.676695345646360802e-02 3.600139999540264563e-02 3.754776971819084874e-01
5.675000000000000000e+03 2.213252750566343963e+00 7.928630180285495044e+00 3.686528256069307452e-02 3.609620779076625624e-02 3.757030153373047132e-01
5.680000000000000000e+03 2.215577176820992644e+00 7.924655751471292753e+00 3.696379251959359263e-02 3.619118318945144241e-02 3.759281349566867547e-01
5.685000000000000000e+03 2.217902683595956770e+00 7.920691063281557476e+00 3.706248351327303542e-02 3.628632633245405109e-02 3.761530565703787299e-01
5.690000000000000000e+03 2.220229269764477209e+00 7.916736082095183313e+00 3.716135572185989139e-02 3.638163736070590404e-02 3.763777807076006954e-01
5.695000000000000000e+03 2.222556934201034728e+00 7.912790774439404373e+00 3.726040932550231388e-02 3.647711641507374314e-02 3.766023078964689241e-01
5.700000000000000000e+03 2.224885675781372640e+00 7.908855106989006067e+00 3.735964450436839168e-02 3.657276363635941080e-02 3.768266386639949617e-01
5.705000000000000000e+03 2.227215493382485700e+00 7.904929046565482231e+00 3.745906143864668331e-02 3.666857916530018302e-02 3.770507735360859036e-01
5.710000000000000000e+03 2.229546385882601012e+00 7.901012560136292606e+00 3.755866030854514842e-02 3.676456314256768693e-02 3.772747130375439517e-01
5.715000000000000000e+03 2.231878352161190904e+00 7.897105614814060814e+00 3.765844129429175152e-02 3.686071570876831710e-02 3.774984576920659141e-01
5.720000000000000000e+03 2.234211391098960942e+00 7.893208177855763452e+00 3.775840457613457296e-02 3.695703700444321477e-02 3.777220080222434273e-01
5.725000000000000000e+03 2.236545501577844597e+00 7.889320216661991125e+00 3.785855033434134403e-02 3.705352717006783758e-02 3.779453645495624570e-01
5.730000000000000000e+03 2.238880682480999695e+00 7.885441698776160635e+00 3.795887874919951638e-02 3.715018634605171677e-02 3.781685277944033530e-01
5.735000000000000000e+03 2.241216932692791985e+00 7.881572591883757362e+00 3.805939000101602604e-02 3.724701467273820732e-02 3.783914982760404055e-01
5.740000000000000000e+03 2.243554251098822672e+00 7.877712863811536792e+00 3.816008427011822329e-02 3.734401229040532066e-02 3.786142765126422893e-01
5.745000000000000000e+03 2.245892636585877788e+00 7.873862482526835294e+00 3.826096173685218649e-02 3.744117933926383729e-02 3.788368630212710642e-01
5.750000000000000000e+03 2.248232088041971721e+00 7.870021416136722792e+00 3.836202258158455392e-02 3.753851595945908309e-02 3.790592583178831743e-01
5.755000000000000000e+03 2.250572604356301465e+00 7.866189632887351735e+00 3.846326698470094174e-02 3.763602229106927100e-02 3.792814629173285601e-01
5.760000000000000000e+03 2.252914184419265275e+00 7.862367101163159511e+00 3.856469512660652688e-02 3.773369847410586869e-02 3.795034773333509359e-01
5.765000000000000000e+03 2.255256827122447572e+00 7.858553789486131258e+00 3.866630718772617187e-02 3.783154464851368887e-02 3.797253020785877897e-01
5.770000000000000000e+03 2.257600531358629148e+00 7.854749666515076889e+00 3.876810334850430695e-02 3.792956095417059775e-02 3.799469376645705498e-01
5.775000000000000000e+03 2.259945296021757866e+00 7.850954701044909001e+00 3.887008378940446512e-02 3.802774753088694615e-02 3.801683846017240853e-01
5.780000000000000000e+03 2.262291120006970857e+00 7.847168862005896806e+00 3.897224869090982341e-02 3.812610451840610370e-02 3.803896433993675386e-01
5.785000000000000000e+03 2.264638002210573653e+00 7.843392118462963580e+00 3.907459823352300160e-02 3.822463205640388995e-02 3.806107145657136592e-01
5.790000000000000000e+03 2.266985941530033077e+00 7.839624439614972573e+00 3.917713259776553492e-02 3.832333028448822038e-02 3.808315986078692483e-01
5.795000000000000000e+03 2.269334936863983465e+00 7.835865794793998695e+00 3.927985196417849850e-02 3.842219934219943261e-02 3.810522960318354357e-01
5.800000000000000000e+03 2.271684987112216891e+00 7.832116153464639297e+00 3.938275651332225069e-02 3.852123936900994638e-02 3.812728073425074027e-01
5.805000000000000000e+03 2.274036091175690277e+00 7.828375485223290298e+00 3.948584642577655096e-02 3.862045050432427740e-02 3.814931330436749923e-01
5.810000000000000000e+03 2.276388247956484090e+00 7.824643759797489828e+00 3.958912188213959543e-02 3.871983288747801039e-02 3.817132736380223212e-01
5.815000000000000000e+03 2.278741456357853412e+00 7.820920947045168603e+00 3.969258306302956424e-02 3.881938665773911751e-02 3.819332296271286120e-01
5.820000000000000000e+03 2.281095715284174208e+00 7.817207016954006882e+00 3.979623014908315742e-02 3.891911195430647341e-02 3.821530015114679157e-01
5.825000000000000000e+03 2.283451023640963751e+00 7.813501939640729255e+00 3.990006332095640679e-02 3.901900891631049362e-02 3.823725897904095561e-01
5.830000000000000000e+03 2.285807380334870853e+00 7.809805685350433180e+00 4.000408275932409302e-02 3.911907768281247533e-02 3.825919949622183514e-01
5.835000000000000000e+03 2.288164784273676755e+00 7.806118224455897092e+00 4.010828864488030082e-02 3.921931839280502763e-02 3.828112175240550030e-01
5.840000000000000000e+03 2.290523234366285799e+00 7.802439527456912494e+00 4.021268115833803031e-02 3.931973118521150251e-02 3.830302579719760403e-01
5.845000000000000000e+03 2.292882729522718765e+00 7.798769564979633806e+00 4.031726048042907906e-02 3.942031619888588384e-02 3.832491168009344862e-01
5.850000000000000000e+03 2.295243268654100000e+00 7.795108307775908685e+00 4.042202679190386866e-02 3.952107357261238491e-02 3.834677945047800240e-01
5.855000000000000000e+03 2.297604850672679611e+00 7.791455726722599451e+00 4.052698027353189569e-02 3.962200344510584393e-02 3.836862915762593862e-01
5.860000000000000000e+03 2.299967474491813046e+00 7.787811792820933832e+00 4.063212110610176647e-02 3.972310595501157143e-02 3.839046085070165759e-01
5.865000000000000000e+03 2.302331139025944662e+00 7.784176477195886790e+00 4.073744947042005904e-02 3.982438124090423998e-02 3.841227457875936446e-01
5.870000000000000000e+03 2.304695843190633031e+00 7.780549751095471755e+00 4.084296554731290524e-02 3.992582944128919564e-02 3.843407039074305254e-01
5.875000000000000000e+03 2.307061585902520751e+00 7.776931585890157983e+00 4.094866951762479029e-02 4.002745069460117433e-02 3.845584833548658654e-01
5.880000000000000000e+03 2.309428366079333994e+00 7.773321953072198198e+00 4.105456156221842789e-02 4.012924513920414910e-02 3.847760846171373039e-01
5.885000000000000000e+03 2.311796182639902053e+00 7.769720824254983782e+00 4.116064186197596064e-02 4.023121291339233629e-02 3.849935081803818604e-01
5.890000000000000000e+03 2.314165034504116480e+00 7.766128171172453243e+00 4.126691059779740572e-02 4.033335415538848168e-02 3.852107545296366564e-01
5.895000000000000000e+03 2.316534920592955071e+00 7.762543965678427860e+00 4.137336795060154310e-02 4.043566900334479020e-02 3.854278241488391377e-01
5.900000000000000000e+03 2.318905839828469428e+00 7.758968179745995286e+00 4.148001410132591549e-02 4.053815759534260682e-02 3.856447175208276845e-01
5.905000000000000000e+03 2.321277791133773416e+00 7.755400785466903812e+00 4.158684923092599572e-02 4.064082006939163938e-02 3.858614351273420007e-01
5.910000000000000000e+03 2.323650773433054262e+00 7.751841755050929983e+00 4.169387352037631778e-02 4.074365656343084674e-02 3.860779774490239458e-01
5.915000000000000000e+03 2.326024785651551685e+00 7.748291060825273746e+00 4.180108715066935959e-02 4.084666721532729389e-02 3.862943449654177019e-01
5.920000000000000000e+03 2.328399826715564114e+00 7.744748675233962487e+00 4.190849030281573045e-02 4.094985216287620050e-02 3.865105381549706065e-01
5.925000000000000000e+03 2.330775895552453125e+00 7.741214570837206210e+00 4.201608315784538528e-02 4.105321154380196097e-02 3.867265574950336515e-01
5.930000000000000000e+03 2.333152991090606143e+00 7.737688720310847756e+00 4.212386589680513355e-02 4.115674549575568109e-02 3.869424034618620944e-01
5.935000000000000000e+03 2.335531112259479958e+00 7.734171096445717986e+00 4.223183870076128998e-02 4.126045415631753033e-02 3.871580765306160687e-01
5.940000000000000000e+03 2.337910257989553209e+00 7.730661672147091323e+00 4.234000175079751654e-02 4.136433766299467407e-02 3.873735771753610835e-01
5.945000000000000000e+03 2.340290427212358804e+00 7.727160420434035615e+00 4.244835522801644612e-02 4.146839615322258504e-02 3.875889058690689670e-01
5.950000000000000000e+03 2.342671618860439509e+00 7.723667314438896092e+00 4.255689931353769107e-02 4.157262976436305879e-02 3.878040630836182001e-01
5.955000000000000000e+03 2.345053831867395466e+00 7.720182327406629241e+00 4.266563418850034817e-02 4.167703863370657291e-02 3.880190492897947485e-01
5.960000000000000000e+03 2.347437065167825132e+00 7.716705432694304534e+00 4.277456003406043122e-02 4.178162289846955313e-02 3.882338649572927292e-01
5.965000000000000000e+03 2.349821317697365686e+00 7.713236603770487143e+00 4.288367703139257803e-02 4.188638269579603168e-02 3.884485105547150763e-01
5.970000000000000000e+03 2.352206588392667275e+00 7.709775814214647305e+00 4.299298536168932872e-02 4.199131816275677304e-02 3.886629865495743741e-01
5.975000000000000000e+03 2.354592876191390793e+00 7.706323037716638069e+00 4.310248520616108414e-02 4.209642943634912815e-02 3.888772934082935229e-01
5.980000000000000000e+03 2.356980180032210548e+00 7.702878248076095780e+00 4.321217674603623771e-02 4.220171665349699286e-02 3.890914315962062942e-01
