#[MATERIAL DEFINITION FOR MC-GPU: interaction mean free path and sampling data from PENELOPE 2006]
#[MATERIAL NAME]
# H2O(H2O)
#[NOMINAL DENSITY (g/cm^3)]
# 1.0
#[NUMBER OF DATA VALUES]
# 24001
#[MEAN FREE PATHS (cm)]
#[Energy (eV)     | Rayleigh        | Compton         | Photoelectric   | TOTAL (+pair prod) (cm) | Rayleigh: max cumul prob F^2]
5.000000000000000000e+03 1.792589773268297604e+00 8.902242784863707570e+00 2.385387211742136249e-02 2.347853329221404745e-02 3.512828180762069263e-01
5.005000000000000000e+03 1.794639238598301212e+00 8.896075083934448458e+00 2.392615295062509514e-02 2.354886410658253368e-02 3.515413179139123545e-01
5.010000000000000000e+03 1.796690030207455324e+00 8.889924870532885492e+00 2.399858518535603891e-02 2.361933808184033326e-02 3.517994921153363430e-01
5.015000000000000000e+03 1.798742146971596068e+00 8.883792075671072652e+00 2.407116899471319765e-02 2.368995536403031843e-02 3.520573414008156266e-01
5.020000000000000000e+03 1.800795587768867057e+00 8.877676630711716754e+00 2.414390455181664522e-02 2.376071609915224314e-02 3.523148664901925575e-01
5.025000000000000000e+03 1.802850351479712288e+00 8.871578467365994314e+00 2.421679202980693557e-02 2.383162043316199019e-02 3.525720681028062242e-01
5.030000000000000000e+03 1.804906436986875473e+00 8.865497517691332874e+00 2.428983160184608470e-02 2.390266851197248715e-02 3.528289469574841242e-01
5.035000000000000000e+03 1.806963843175370288e+00 8.859433714089311351e+00 2.436302344111646381e-02 2.397386048145249207e-02 3.530855037725338930e-01
5.040000000000000000e+03 1.809022568932487474e+00 8.853386989303475119e+00 2.443636772082167369e-02 2.404519648742734980e-02 3.533417392657352551e-01
5.045000000000000000e+03 1.811082613147757314e+00 8.847357276417289640e+00 2.450986461418553156e-02 2.411667667567796158e-02 3.535976541543315310e-01
5.050000000000000000e+03 1.813143974712958517e+00 8.841344508851960882e+00 2.458351429445265399e-02 2.418830119194116668e-02 3.538532491550214210e-01
5.055000000000000000e+03 1.815206652522100672e+00 8.835348620364365857e+00 2.465731693488843954e-02 2.426007018190973544e-02 3.541085249839515670e-01
5.060000000000000000e+03 1.817270645471403823e+00 8.829369545045018697e+00 2.473127270877844772e-02 2.433198379123154009e-02 3.543634823567080039e-01
5.065000000000000000e+03 1.819335952459302908e+00 8.823407217315953233e+00 2.480538178942901656e-02 2.440404216551018274e-02 3.546181219883087210e-01
5.070000000000000000e+03 1.821402572386412899e+00 8.817461571928722819e+00 2.487964435016655831e-02 2.447624545030411755e-02 3.548724445931955573e-01
5.075000000000000000e+03 1.823470504155538130e+00 8.811532543962353969e+00 2.495406056433800007e-02 2.454859379112705672e-02 3.551264508852266522e-01
5.080000000000000000e+03 1.825539746671655417e+00 8.805620068821323088e+00 2.502863060531053396e-02 2.462108733344756106e-02 3.553801415776687289e-01
5.085000000000000000e+03 1.827610298841890302e+00 8.799724082233572275e+00 2.510335464647150266e-02 2.469372622268890122e-02 3.556335173831896568e-01
5.090000000000000000e+03 1.829682159575521050e+00 8.793844520248523366e+00 2.517823286122831267e-02 2.476651060422881828e-02 3.558865790138509011e-01
5.095000000000000000e+03 1.831755327783952225e+00 8.787981319235113276e+00 2.525326542300842039e-02 2.483944062339941972e-02 3.561393271810999184e-01
5.100000000000000000e+03 1.833829802380723351e+00 8.782134415879793821e+00 2.532845250525953343e-02 2.491251642548734241e-02 3.563917625957631619e-01
5.105000000000000000e+03 1.835905582281476267e+00 8.776303747184657666e+00 2.540379428144913174e-02 2.498573815573307613e-02 3.566438859680384765e-01
5.110000000000000000e+03 1.837982666403954468e+00 8.770489250465461240e+00 2.547929092506447113e-02 2.505910595933096008e-02 3.568956980074881047e-01
5.115000000000000000e+03 1.840061053667997992e+00 8.764690863349704486e+00 2.555494260961304123e-02 2.513261998142953674e-02 3.571471994230314695e-01
5.120000000000000000e+03 1.842140742995516556e+00 8.758908523774779908e+00 2.563074950862174670e-02 2.520628036713058046e-02 3.573983909229382916e-01
5.125000000000000000e+03 1.844221733310487998e+00 8.753142169986043442e+00 2.570671179563725414e-02 2.528008726148937152e-02 3.576492732148213172e-01
5.130000000000000000e+03 1.846304023538943628e+00 8.747391740534965265e+00 2.578282964422582563e-02 2.535404080951449146e-02 3.578998470056296011e-01
5.135000000000000000e+03 1.848387612608972663e+00 8.741657174277225550e+00 2.585910322797363090e-02 2.542814115616795489e-02 3.581501130016416790e-01
5.140000000000000000e+03 1.850472499450685815e+00 8.735938410370930995e+00 2.593553272048604655e-02 2.550238844636446706e-02 3.584000719084586839e-01
5.145000000000000000e+03 1.852558682996213957e+00 8.730235388274760311e+00 2.601211829538786074e-02 2.557678282497149319e-02 3.586497244309975740e-01
5.150000000000000000e+03 1.854646162179717228e+00 8.724548047746083057e+00 2.608886012632374851e-02 2.565132443680966101e-02 3.588990712734849153e-01
5.155000000000000000e+03 1.856734935937338848e+00 8.718876328839265000e+00 2.616575838695704703e-02 2.572601342665148394e-02 3.591481131394499426e-01
5.160000000000000000e+03 1.858825003207225546e+00 8.713220171903779843e+00 2.624281325097090056e-02 2.580084993922232214e-02 3.593968507317178429e-01
5.165000000000000000e+03 1.860916362929501577e+00 8.707579517582464845e+00 2.632002489206748327e-02 2.587583411919953252e-02 3.596452847524040930e-01
5.170000000000000000e+03 1.863009014046260958e+00 8.701954306809755124e+00 2.639739348396817620e-02 2.595096611121262484e-02 3.598934159029073543e-01
5.175000000000000000e+03 1.865102955501560356e+00 8.696344480809916178e+00 2.647491920041345620e-02 2.602624605984293210e-02 3.601412448839035885e-01
5.180000000000000000e+03 1.867198186241398217e+00 8.690749981095313714e+00 2.655260221516273292e-02 2.610167410962347181e-02 3.603887723953396183e-01
5.185000000000000000e+03 1.869294705213721430e+00 8.685170749464671047e+00 2.663044270199445979e-02 2.617725040503888004e-02 3.606359991364270767e-01
5.190000000000000000e+03 1.871392511368406453e+00 8.679606728001331817e+00 2.670844083470632485e-02 2.625297509052551895e-02 3.608829258056364675e-01
5.195000000000000000e+03 1.873491603657242432e+00 8.674057859071611531e+00 2.678659678711442158e-02 2.632884831047056784e-02 3.611295531006906145e-01
5.200000000000000000e+03 1.875591981033932321e+00 8.668524085323042527e+00 2.686491073305381783e-02 2.640487020921250191e-02 3.613758817185594996e-01
5.205000000000000000e+03 1.877693642454071998e+00 8.663005349682727285e+00 2.694338284637840669e-02 2.648104093104082860e-02 3.616219123554535453e-01
5.210000000000000000e+03 1.879796586875160491e+00 8.657501595355640234e+00 2.702201330096079199e-02 2.655736062019587243e-02 3.618676457068181751e-01
5.215000000000000000e+03 1.881900813256562222e+00 8.652012765822998830e+00 2.710080227069194478e-02 2.663382942086837263e-02 3.621130824673282622e-01
5.220000000000000000e+03 1.884006320559516112e+00 8.646538804840593784e+00 2.717974992948172727e-02 2.671044747719983695e-02 3.623582233308819678e-01
5.225000000000000000e+03 1.886113107747123596e+00 8.641079656437177903e+00 2.725885645125824749e-02 2.678721493328187556e-02 3.626030689905952453e-01
5.230000000000000000e+03 1.888221173784334184e+00 8.635635264912792763e+00 2.733812200996828257e-02 2.686413193315649595e-02 3.628476201387965117e-01
5.235000000000000000e+03 1.890330517637938579e+00 8.630205574837225058e+00 2.741754677957686931e-02 2.694119862081558250e-02 3.630918774670208182e-01
5.240000000000000000e+03 1.892441138276559798e+00 8.624790531048349251e+00 2.749713093406731118e-02 2.701841514020084795e-02 3.633358416660044110e-01
5.245000000000000000e+03 1.894553034670643399e+00 8.619390078650548404e+00 2.757687464744155645e-02 2.709578163520403801e-02 3.635795134256795125e-01
5.250000000000000000e+03 1.896666205792443050e+00 8.614004163013179394e+00 2.765677809371914000e-02 2.717329824966589757e-02 3.638228934351689925e-01
5.255000000000000000e+03 1.898780650616026078e+00 8.608632729768926239e+00 2.773684144693851911e-02 2.725096512737727045e-02 3.640659823827808173e-01
5.260000000000000000e+03 1.900896368117235724e+00 8.603275724812323944e+00 2.781706488115549825e-02 2.732878241207752426e-02 3.643087809560029977e-01
5.265000000000000000e+03 1.903013357273715123e+00 8.597933094298159773e+00 2.789744857044429774e-02 2.740675024745551497e-02 3.645512898414986491e-01
5.270000000000000000e+03 1.905131617064879324e+00 8.592604784639950921e+00 2.797799268889713392e-02 2.748486877714900051e-02 3.647935097251004399e-01
5.275000000000000000e+03 1.907251146471909964e+00 8.587290742508423946e+00 2.805869741062418446e-02 2.756313814474459570e-02 3.650354412918059288e-01
5.280000000000000000e+03 1.909371944477742167e+00 8.581990914830004868e+00 2.813956290975326568e-02 2.764155849377727611e-02 3.652770852257725132e-01
5.285000000000000000e+03 1.911494010067066762e+00 8.576705248785302160e+00 2.822058936043030791e-02 2.772012996773083604e-02 3.655184422103123221e-01
5.290000000000000000e+03 1.913617342226304086e+00 8.571433691807643029e+00 2.830177693681855400e-02 2.779885271003690664e-02 3.657595129278874424e-01
5.295000000000000000e+03 1.915741939943617744e+00 8.566176191581535093e+00 2.838312581309949956e-02 2.787772686407587186e-02 3.660002980601054223e-01
5.300000000000000000e+03 1.917867802208877537e+00 8.560932696041273715e+00 2.846463616347164396e-02 2.795675257317547027e-02 3.662407982877139423e-01
5.305000000000000000e+03 1.919994928013686319e+00 8.555703153369385916e+00 2.854630816215178793e-02 2.803592998061201283e-02 3.664810142905965962e-01
5.310000000000000000e+03 1.922123316351329381e+00 8.550487511995282119e+00 2.862814198337334734e-02 2.811525922960861693e-02 3.667209467477680618e-01
5.315000000000000000e+03 1.924252966216810634e+00 8.545285720593698287e+00 2.871013780138821983e-02 2.819474046333693418e-02 3.669605963373695490e-01
5.320000000000000000e+03 1.926383876606796441e+00 8.540097728083392070e+00 2.879229579046470658e-02 2.827437382491502019e-02 3.671999637366641922e-01
5.325000000000000000e+03 1.928516046519658245e+00 8.534923483625593832e+00 2.887461612488939275e-02 2.835415945740909702e-02 3.674390496220327207e-01
5.330000000000000000e+03 1.930649474955414613e+00 8.529762936622704572e+00 2.895709897896525664e-02 2.843409750383157561e-02 3.676778546689691840e-01
5.335000000000000000e+03 1.932784160915759220e+00 8.524616036716803791e+00 2.903974452701318237e-02 2.851418810714240887e-02 3.679163795520760116e-01
5.340000000000000000e+03 1.934920103404043301e+00 8.519482733788317219e+00 2.912255294337104394e-02 2.859443141024820001e-02 3.681546249450602937e-01
5.345000000000000000e+03 1.937057301425243683e+00 8.514362977954625933e+00 2.920552440239349359e-02 2.867482755600177929e-02 3.683925915207293400e-01
5.350000000000000000e+03 1.939195753985998749e+00 8.509256719568632832e+00 2.928865907845289510e-02 2.875537668720309567e-02 3.686302799509864614e-01
5.355000000000000000e+03 1.941335460094552934e+00 8.504163909217513861e+00 2.937195714593778331e-02 2.883607894659757920e-02 3.688676909068267507e-01
5.360000000000000000e+03 1.943476418760791580e+00 8.499084497721218767e+00 2.945541877925449484e-02 2.891693447687762250e-02 3.691048250583330859e-01
5.365000000000000000e+03 1.945618628996195865e+00 8.494018436131264949e+00 2.953904415282557205e-02 2.899794342068097441e-02 3.693416830746720780e-01
5.370000000000000000e+03 1.947762089813865671e+00 8.488965675729280846e+00 2.962283344109092886e-02 2.907910592059175306e-02 3.695782656240900743e-01
5.375000000000000000e+03 1.949906800228487391e+00 8.483926168025778480e+00 2.970678681850674741e-02 2.916042211913919338e-02 3.698145733739091612e-01
5.380000000000000000e+03 1.952052759256335701e+00 8.478899864758776772e+00 2.979090445954619623e-02 2.924189215879841389e-02 3.700506069905233897e-01
5.385000000000000000e+03 1.954199965915271786e+00 8.473886717892495923e+00 2.987518653869906254e-02 2.932351618198980256e-02 3.702863671393948342e-01
5.390000000000000000e+03 1.956348419224733126e+00 8.468886679616062452e+00 2.995963323047193261e-02 2.940529433107918686e-02 3.705218544850499840e-01
5.395000000000000000e+03 1.958498118205709071e+00 8.463899702342242648e+00 3.004424470938757072e-02 2.948722674837707738e-02 3.707570696910756358e-01
5.400000000000000000e+03 1.960649061880761934e+00 8.458925738706113862e+00 3.012902114998567207e-02 2.956931357613931319e-02 3.709920134201155628e-01
5.405000000000000000e+03 1.962801249273987469e+00 8.453964741563851248e+00 3.021396272682175949e-02 2.965155495656593421e-02 3.712266863338667955e-01
5.410000000000000000e+03 1.964954679411037297e+00 8.449016663991384846e+00 3.029906961446832830e-02 2.973395103180213536e-02 3.714610890930760134e-01
5.415000000000000000e+03 1.967109351319092037e+00 8.444081459283209412e+00 3.038434198751394089e-02 2.981650194393729858e-02 3.716952223575358261e-01
5.420000000000000000e+03 1.969265264026856865e+00 8.439159080951103675e+00 3.046978002056338619e-02 2.989920783500508994e-02 3.719290867860816641e-01
5.425000000000000000e+03 1.971422416564559743e+00 8.434249482722886881e+00 3.055538388823773530e-02 2.998206884698335906e-02 3.721626830365880045e-01
5.430000000000000000e+03 1.973580807963943196e+00 8.429352618541212649e+00 3.064115376517436221e-02 3.006508512179409051e-02 3.723960117659650404e-01
5.435000000000000000e+03 1.975740437258246107e+00 8.424468442562327297e+00 3.072708982602632630e-02 3.014825680130272384e-02 3.726290736301555717e-01
5.440000000000000000e+03 1.977901303482216600e+00 8.419596909154835274e+00 3.081319224546333335e-02 3.023158402731892028e-02 3.728618692841312310e-01
5.445000000000000000e+03 1.980063405672076504e+00 8.414737972898556961e+00 3.089946119817034778e-02 3.031506694159517845e-02 3.730943993818897630e-01
5.450000000000000000e+03 1.982226742865545788e+00 8.409891588583244371e+00 3.098589685884890060e-02 3.039870568582796195e-02 3.733266645764515279e-01
5.455000000000000000e+03 1.984391314101814352e+00 8.405057711207453153e+00 3.107249940221618392e-02 3.048250040165679381e-02 3.735586655198563366e-01
5.460000000000000000e+03 1.986557118421534041e+00 8.400236295977340006e+00 3.115926900300501623e-02 3.056645123066401709e-02 3.737904028631602871e-01
5.465000000000000000e+03 1.988724154866829297e+00 8.395427298305477848e+00 3.124620583596433160e-02 3.065055831437524247e-02 3.740218772564329330e-01
5.470000000000000000e+03 1.990892422481270518e+00 8.390630673809708284e+00 3.133331007585848926e-02 3.073482179425857455e-02 3.742530893487540644e-01
5.475000000000000000e+03 1.993061920309877610e+00 8.385846378311969218e+00 3.142058189746764485e-02 3.081924181172483040e-02 3.744840397882108207e-01
5.480000000000000000e+03 1.995232647399115766e+00 8.381074367837129557e+00 3.150802147558767752e-02 3.090381850812741818e-02 3.747147292218946379e-01
5.485000000000000000e+03 1.997404602796873707e+00 8.376314598611893203e+00 3.159562898502969036e-02 3.098855202476169177e-02 3.749451582958984175e-01
5.490000000000000000e+03 1.999577785552466791e+00 8.371567027063619548e+00 3.168340460062035735e-02 3.107344250286529080e-02 3.751753276553138061e-01
5.495000000000000000e+03 2.001752194716644784e+00 8.366831609819177729e+00 3.177134849720236048e-02 3.115849008361832803e-02 3.754052379442281429e-01
5.500000000000000000e+03 2.003927829341548783e+00 8.362108303703911005e+00 3.185946084963269670e-02 3.124369490814177253e-02 3.756348898057219610e-01
5.505000000000000000e+03 2.006104688480744525e+00 8.357397065740412856e+00 3.194774183278475260e-02 3.132905711749928851e-02 3.758642838818659349e-01
5.510000000000000000e+03 2.008282771189183080e+00 8.352697853147503793e+00 3.203619162154649341e-02 3.141457685269538613e-02 3.760934208137186596e-01
5.515000000000000000e+03 2.010462076523219288e+00 8.348010623339096270e+00 3.212481039082155237e-02 3.150025425467639639e-02 3.763223012413235979e-01
5.520000000000000000e+03 2.012642603540581554e+00 8.343335333923116437e+00 3.221359831552831482e-02 3.158608946432949621e-02 3.765509258037066931e-01
5.525000000000000000e+03 2.014824351300386951e+00 8.338671942700404571e+00 3.230255557060050797e-02 3.167208262248312478e-02 3.767792951388737599e-01
5.530000000000000000e+03 2.017007318863119902e+00 8.334020407663649266e+00 3.239168233098688177e-02 3.175823386990664354e-02 3.770074098838080423e-01
5.535000000000000000e+03 2.019191505290635291e+00 8.329380686996316285e+00 3.248097877165133374e-02 3.184454334731029457e-02 3.772352706744676598e-01
5.540000000000000000e+03 2.021376909646145137e+00 8.324752739071577423e+00 3.257044506757244412e-02 3.193101119534471483e-02 3.774628781457832205e-01
5.545000000000000000e+03 2.023563530994215043e+00 8.320136522451267780e+00 3.266008139374390606e-02 3.201763755460116517e-02 3.776902329316555451e-01
5.550000000000000000e+03 2.025751368400752206e+00 8.315531995884835936e+00 3.274988792517398439e-02 3.210442256561098912e-02 3.779173356649529469e-01
5.555000000000000000e+03 2.027940420933019627e+00 8.310939118308263929e+00 3.283986483688630664e-02 3.219136636884624425e-02 3.781441869775093445e-01
5.560000000000000000e+03 2.030130687659591704e+00 8.306357848843116898e+00 3.293001230391833650e-02 3.227846910471814101e-02 3.783707875001219301e-01
5.565000000000000000e+03 2.032322167650391975e+00 8.301788146795404444e+00 3.302033050132309466e-02 3.236573091357852761e-02 3.785971378625487271e-01
5.570000000000000000e+03 2.034514859976654044e+00 8.297229971654651592e+00 3.311081960416777797e-02 3.245315193571860629e-02 3.788232386935064255e-01
5.575000000000000000e+03 2.036708763710927794e+00 8.292683283092827651e+00 3.320147978753421741e-02 3.254073231136912769e-02 3.790490906206684940e-01
5.580000000000000000e+03 2.038903877927070951e+00 8.288148040963385199e+00 3.329231122651859359e-02 3.262847218070008548e-02 3.792746942706627933e-01
5.585000000000000000e+03 2.041100201700252192e+00 8.283624205300192500e+00 3.338331409623204737e-02 3.271637168382122290e-02 3.795000502690696886e-01
5.590000000000000000e+03 2.043297734106932495e+00 8.279111736316599135e+00 3.347448857179976395e-02 3.280443096078096421e-02 3.797251592404197740e-01
5.595000000000000000e+03 2.045496474224856254e+00 8.274610594404425257e+00 3.356583482836115323e-02 3.289265015156662281e-02 3.799500218081922065e-01
5.600000000000000000e+03 2.047696421133066824e+00 8.270120740132961501e+00 3.365735304107037029e-02 3.298102939610465800e-02 3.801746385948123197e-01
5.605000000000000000e+03 2.049897573911872772e+00 8.265642134248034623e+00 3.374904338509526758e-02 3.306956883425965499e-02 3.803990102216502356e-01
5.610000000000000000e+03 2.052099931642865638e+00 8.261174737670987867e+00 3.384090603561851207e-02 3.315826860583528241e-02 3.806231373090184777e-01
5.615000000000000000e+03 2.054303493408903059e+00 8.256718511497751933e+00 3.393294116783656528e-02 3.324712885057318906e-02 3.808470204761704725e-01
5.620000000000000000e+03 2.056508258294099445e+00 8.252273416997873312e+00 3.402514895696003711e-02 3.333614970815326761e-02 3.810706603412982729e-01
5.625000000000000000e+03 2.058714225383819318e+00 8.247839415613592351e+00 3.411752957821332505e-02 3.342533131819318964e-02 3.812940575215313932e-01
5.630000000000000000e+03 2.060921393764693743e+00 8.243416468958834287e+00 3.421008320683543991e-02 3.351467382024908570e-02 3.815172126329346991e-01
5.635000000000000000e+03 2.063129762524584798e+00 8.239004538818342382e+00 3.430281001807877761e-02 3.360417735381433096e-02 3.817401262905066317e-01
5.640000000000000000e+03 2.065339330752594460e+00 8.234603587146699155e+00 3.439571018720982698e-02 3.369384205832003792e-02 3.819627991081777085e-01
5.645000000000000000e+03 2.067550097539059273e+00 8.230213576067418657e+00 3.448878388950896851e-02 3.378366807313481351e-02 3.821852316988089138e-01
5.650000000000000000e+03 2.069762061975540135e+00 8.225834467872019218e+00 3.458203130027016903e-02 3.387365553756434972e-02 3.824074246741898109e-01
5.655000000000000000e+03 2.071975223154819634e+00 8.221466225019121055e+00 3.467545259480118991e-02 3.396380459085150683e-02 3.826293786450373213e-01
5.660000000000000000e+03 2.074189580170893166e+00 8.217108810133519015e+00 3.476904794842345520e-02 3.405411537217614693e-02 3.828510942209940038e-01
5.665000000000000000e+03 2.076405132118976926e+00 8.212762186005280185e+00 3.486281753647229448e-02 3.414458802065518245e-02 3.830725720106264998e-01
5.670000000000000000e+03 2.078621878095483488e+00 8.208426315588866373e+00 3.495676153429641553e-02 3.423522267534200719e-02 3.832938126214242014e-01
5.675000000000000000e+03 2.080839817198016028e+00 8.204101162002242376e+00 3.505088011725758512e-02 3.432601947522613550e-02 3.835148166597978081e-01
5.680000000000000000e+03 2.083058948525389642e+00 8.199786688525946943e+00 3.514517346073187110e-02 3.441697855923418065e-02 3.837355847310776058e-01
5.685000000000000000e+03 2.085279271177589155e+00 8.195482858602286313e+00 3.523964174010808109e-02 3.450810006622838377e-02 3.839561174395125787e-01
5.690000000000000000e+03 2.087500784255800657e+00 8.191189635834380312e+00 3.533428513078885891e-02 3.459938413500746046e-02 3.841764153882688548e-01
5.695000000000000000e+03 2.089723486862370638e+00 8.186906983985354103e+00 3.542910380818986571e-02 3.469083090430578192e-02 3.843964791794282077e-01
5.700000000000000000e+03 2.091947378100823318e+00 8.182634866977462451e+00 3.552409794773991880e-02 3.478244051279336113e-02 3.846163094139870009e-01
5.705000000000000000e+03 2.094172457075857974e+00 8.178373248891189107e+00 3.561926772488154674e-02 3.487421309907632466e-02 3.848359066918549121e-01
5.710000000000000000e+03 2.096398722893322297e+00 8.174122093964463431e+00 3.571461331506991382e-02 3.496614880169574696e-02 3.850552716118537666e-01
5.715000000000000000e+03 2.098626174660227051e+00 8.169881366591761562e+00 3.581013489377339598e-02 3.505824775912811525e-02 3.852744047717162612e-01
5.720000000000000000e+03 2.100854811484733187e+00 8.165651031323285736e+00 3.590583263647367102e-02 3.515051010978533647e-02 3.854933067680846315e-01
5.725000000000000000e+03 2.103084632476151405e+00 8.161431052864115188e+00 3.600170671866534389e-02 3.524293599201418908e-02 3.857119781965099858e-01
5.730000000000000000e+03 2.105315636744927499e+00 8.157221396073401465e+00 3.609775731585586345e-02 3.533552554409626761e-02 3.859304196514508623e-01
5.735000000000000000e+03 2.107547823402638354e+00 8.153022025963528208e+00 3.619398460356527958e-02 3.542827890424756626e-02 3.861486317262721735e-01
5.740000000000000000e+03 2.109781191562007496e+00 8.148832907699260275e+00 3.629038875732729097e-02 3.552119621061940180e-02 3.863666150132444854e-01
5.745000000000000000e+03 2.112015740336862901e+00 8.144654006597004781e+00 3.638696995268742712e-02 3.561427760129657477e-02 3.865843701035425184e-01
5.750000000000000000e+03 2.114251468842176518e+00 8.140485288123903374e+00 3.648372836520488716e-02 3.570752321429901399e-02 3.868018975872446474e-01
5.755000000000000000e+03 2.116488376194017196e+00 8.136326717897112815e+00 3.658066417045097857e-02 3.580093318758021531e-02 3.870191980533317366e-01
5.760000000000000000e+03 2.118726461509571557e+00 8.132178261682964759e+00 3.667777754400970008e-02 3.589450765902762325e-02 3.872362720896861399e-01
5.765000000000000000e+03 2.120965723907127565e+00 8.128039885396173503e+00 3.677506866147779718e-02 3.598824676646270038e-02 3.874531202830909238e-01
5.770000000000000000e+03 2.123206162506083849e+00 8.123911555099045501e+00 3.687253769846465107e-02 3.608215064764059427e-02 3.876697432192292014e-01
5.775000000000000000e+03 2.125447776426922175e+00 8.119793237000715536e+00 3.697018483059178601e-02 3.617621944024965175e-02 3.878861414826828002e-01
5.780000000000000000e+03 2.127690564791226535e+00 8.115684897456336699e+00 3.706801023349352159e-02 3.627045328191191853e-02 3.881023156569320398e-01
5.785000000000000000e+03 2.129934526721663612e+00 8.111586502966320111e+00 3.716601408281650781e-02 3.636485231018256326e-02 3.883182663243546218e-01
5.790000000000000000e+03 2.132179661341976562e+00 8.107498020175576414e+00 3.726419655421944754e-02 3.645941666254953056e-02 3.885339940662246860e-01
5.795000000000000000e+03 2.134425967776989008e+00 8.103419415872734177e+00 3.736255782337356141e-02 3.655414647643392273e-02 3.887494994627126443e-01
5.800000000000000000e+03 2.136673445152596162e+00 8.099350656989384944e+00 3.746109806596236574e-02 3.664904188918961803e-02 3.889647830928840699e-01
5.805000000000000000e+03 2.138922092595771485e+00 8.095291710599310520e+00 3.755981745768170732e-02 3.674410303810322909e-02 3.891798455346993091e-01
5.810000000000000000e+03 2.141171909234524051e+00 8.091242543917791963e+00 3.765871617423893064e-02 3.683933006039324248e-02 3.893946873650122042e-01
5.815000000000000000e+03 2.143422894197953177e+00 8.087203124300774704e+00 3.775779439135423798e-02 3.693472309321115671e-02 3.896093091595705382e-01
5.820000000000000000e+03 2.145675046616188464e+00 8.083173419244200630e+00 3.785705228475937795e-02 3.703028227364015684e-02 3.898237114930145353e-01
5.825000000000000000e+03 2.147928365620416447e+00 8.079153396383237151e+00 3.795649003019830464e-02 3.712600773869564885e-02 3.900378949388766947e-01
5.830000000000000000e+03 2.150182850342865049e+00 8.075143023491554217e+00 3.805610780342669197e-02 3.722189962532468366e-02 3.902518600695811801e-01
5.835000000000000000e+03 2.152438499916808912e+00 8.071142268480590687e+00 3.815590578021237772e-02 3.731795807040629021e-02 3.904656074564433199e-01
5.840000000000000000e+03 2.154695313476556073e+00 8.067151099398824243e+00 3.825588413633504437e-02 3.741418321075102443e-02 3.906791376696691076e-01
5.845000000000000000e+03 2.156953290157443526e+00 8.063169484431080392e+00 3.835604304758609417e-02 3.751057518310083050e-02 3.908924512783547023e-01
5.850000000000000000e+03 2.159212429095825225e+00 8.059197391897804152e+00 3.845638268976835084e-02 3.760713412412858281e-02 3.911055488504862065e-01
5.855000000000000000e+03 2.161472729429092521e+00 8.055234790254335309e+00 3.855690323869662844e-02 3.770386017043852317e-02 3.913184309529388338e-01
5.860000000000000000e+03 2.163734190295648840e+00 8.051281648090210297e+00 3.865760487019767599e-02 3.780075345856621222e-02 3.915310981514769639e-01
5.865000000000000000e+03 2.165996810834904363e+00 8.047337934128487191e+00 3.875848776010903940e-02 3.789781412497718327e-02 3.917435510107535879e-01
5.870000000000000000e+03 2.168260590187290227e+00 8.043403617225006741e+00 3.885955208428068519e-02 3.799504230606851746e-02 3.919557900943098083e-01
5.875000000000000000e+03 2.170525527494232776e+00 8.039478666367726234e+00 3.896079801857370989e-02 3.809243813816744206e-02 3.921678159645748951e-01
5.880000000000000000e+03 2.172791621898157999e+00 8.035563050676040930e+00 3.906222573886026367e-02 3.819000175753118481e-02 3.923796291828655636e-01
5.885000000000000000e+03 2.175058872542498190e+00 8.031656739400062861e+00 3.916383542102464671e-02 3.828773330034789674e-02 3.925912303093860856e-01
5.890000000000000000e+03 2.177327278571665747e+00 8.027759701919981339e+00 3.926562724096188672e-02 3.838563290273523665e-02 3.928026199032279009e-01
5.895000000000000000e+03 2.179596839131065167e+00 8.023871907745368404e+00 3.936760137457851610e-02 3.848370070074094013e-02 3.930137985223691732e-01
5.900000000000000000e+03 2.181867553367087709e+00 8.019993326514496701e+00 3.946975799779255112e-02 3.858193683034276400e-02 3.932247667236751232e-01
5.905000000000000000e+03 2.184139420427095857e+00 8.016123927993705323e+00 3.957209728653268699e-02 3.868034142744762593e-02 3.934355250628970846e-01
5.910000000000000000e+03 2.186412439459437973e+00 8.012263682076691040e+00 3.967461941673944975e-02 3.877891462789245097e-02 3.936460740946732262e-01
5.915000000000000000e+03 2.188686609613423428e+00 8.008412558783895463e+00 3.977732456436394726e-02 3.887765656744309600e-02 3.938564143725276634e-01
5.920000000000000000e+03 2.190961930039330152e+00 8.004570528261830020e+00 3.988021290536818142e-02 3.897656738179443303e-02 3.940665464488708469e-01
5.925000000000000000e+03 2.193238399888410406e+00 8.000737560782397395e+00 3.998328461572613762e-02 3.907564720657125124e-02 3.942764708749991187e-01
5.930000000000000000e+03 2.195516018312853035e+00 7.996913626742315984e+00 4.008653987142141856e-02 3.917489617732596713e-02 3.944861882010949339e-01
5.935000000000000000e+03 2.197794784465825213e+00 7.993098696662384484e+00 4.018997884844966589e-02 3.927431442954080337e-02 3.946956989762266943e-01
5.940000000000000000e+03 2.200074697501426702e+00 7.989292741186929447e+00 4.029360172281667291e-02 3.937390209862590140e-02 3.949050037483485820e-01
5.945000000000000000e+03 2.202355756574719603e+00 7.985495731083099180e+00 4.039740867053971674e-02 3.947365931992045940e-02 3.951141030643008922e-01
5.950000000000000000e+03 2.204637960841688393e+00 7.981707637240300635e+00 4.050139986764574734e-02 3.957358622869094206e-02 3.953229974698096449e-01
5.955000000000000000e+03 2.206921309459282554e+00 7.977928430669494198e+00 4.060557549017380224e-02 3.967368296013325940e-02 3.955316875094870288e-01
5.960000000000000000e+03 2.209205801585362394e+00 7.974158082502649236e+00 4.070993571417245299e-02 3.977394964937021327e-02 3.957401737268310682e-01
5.965000000000000000e+03 2.211491436378734132e+00 7.970396563992065531e+00 4.081448071570147745e-02 3.987438643145302386e-02 3.959484566642259007e-01
5.970000000000000000e+03 2.213778212999127248e+00 7.966643846509777305e+00 4.091921067083109653e-02 3.997499344136049709e-02 3.961565368629419992e-01
5.975000000000000000e+03 2.216066130607191376e+00 7.962899901546954595e+00 4.102412575564203662e-02 4.007577081399896213e-02 3.963644148631360054e-01
5.980000000000000000e+03 2.218355188364501629e+00 7.959164700713269092e+00 4.112922614622552264e-02 4.017671868420216036e-02 3.965720912038510626e-01
