#[MATERIAL DEFINITION FOR MC-GPU: interaction mean free path and sampling data from PENELOPE 2006]
#[MATERIAL NAME]
# =liver(0.102:H_0.13:C_0.031:N_0.725:O_0.002:Na_0.002:P_0.003:S_0.002:Cl_0.003:K)
#[NOMINAL DENSITY (g/cm^3)]
# 1.05
#[NUMBER OF DATA VALUES]
# 24001
#[MEAN FREE PATHS (cm)]
#[Energy (eV)     | Rayleigh        | Compton         | Photoelectric   | TOTAL (+pair prod) (cm) | Rayleigh: max cumul prob F^2]
5.000000000000000000e+03 1.783875467057792541e+00 8.525309338376800383e+00 2.279379164977903688e-02 2.244695604324375982e-02 3.440223912301988429e-01
5.005000000000000000e+03 1.785897593252108839e+00 8.519533000002658341e+00 2.286223757429164602e-02 2.251361321014782452e-02 3.442803109656878968e-01
5.010000000000000000e+03 1.787920937596478854e+00 8.513773009352856747e+00 2.293082490447340138e-02 2.258040428142486442e-02 3.445379384246565202e-01
5.015000000000000000e+03 1.789945498831840398e+00 8.508029301725700932e+00 2.299955379891287580e-02 2.264732939118084543e-02 3.447952742762901979e-01
5.020000000000000000e+03 1.791971275701306654e+00 8.502301812748696008e+00 2.306842441622042675e-02 2.271438867348516202e-02 3.450523191891468056e-01
5.025000000000000000e+03 1.793998266950162179e+00 8.496590478376530697e+00 2.313743691502761005e-02 2.278158226237011683e-02 3.453090738311492824e-01
5.030000000000000000e+03 1.796026471325859353e+00 8.490895234888988341e+00 2.320659145398818596e-02 2.284891029183169428e-02 3.455655388695787478e-01
5.035000000000000000e+03 1.798055887578000611e+00 8.485216018888973366e+00 2.327588819177704368e-02 2.291637289582850595e-02 3.458217149710681726e-01
5.040000000000000000e+03 1.800086514458336673e+00 8.479552767300461369e+00 2.334532728709105137e-02 2.298397020828247400e-02 3.460776028015952743e-01
5.045000000000000000e+03 1.802118350720738782e+00 8.473905417366577097e+00 2.341490889864817140e-02 2.305170236307787363e-02 3.463332030264765216e-01
5.050000000000000000e+03 1.804151395121208257e+00 8.468273906647553417e+00 2.348463318518792531e-02 2.311956949406176673e-02 3.465885163103598621e-01
5.055000000000000000e+03 1.806185646417861834e+00 8.462658173018795082e+00 2.355450030547152906e-02 2.318757173504398458e-02 3.468435433172188387e-01
5.060000000000000000e+03 1.808221103370908134e+00 8.457058154668951389e+00 2.362451041828119574e-02 2.325570921979631597e-02 3.470982847103461499e-01
5.065000000000000000e+03 1.810257764742662756e+00 8.451473790097944416e+00 2.369466368242083287e-02 2.332398208205321496e-02 3.473527411523470443e-01
5.070000000000000000e+03 1.812295629297509425e+00 8.445905018115094975e+00 2.376496025671532772e-02 2.339239045551090926e-02 3.476069133051332694e-01
5.075000000000000000e+03 1.814334695801913533e+00 8.440351777837184599e+00 2.383540030001102955e-02 2.346093447382784775e-02 3.478608018299170768e-01
5.080000000000000000e+03 1.816374963024405043e+00 8.434814008686565501e+00 2.390598397117552759e-02 2.352961427062430153e-02 3.481144073872045608e-01
5.085000000000000000e+03 1.818416429735563611e+00 8.429291650389311386e+00 2.397671142909750530e-02 2.359842997948227369e-02 3.483677306367901627e-01
5.090000000000000000e+03 1.820459094708016590e+00 8.423784642973334513e+00 2.404758283268678548e-02 2.366738173394528078e-02 3.486207722377505092e-01
5.095000000000000000e+03 1.822502956716418154e+00 8.418292926766554274e+00 2.411859834087420190e-02 2.373646966751830761e-02 3.488735328484381393e-01
5.100000000000000000e+03 1.824548014537460405e+00 8.412816442395007144e+00 2.418975811261193237e-02 2.380569391366791493e-02 3.491260131264762867e-01
5.105000000000000000e+03 1.826594266949842504e+00 8.407355130781098751e+00 2.426106230687295057e-02 2.387505460582165645e-02 3.493782137287526623e-01
5.110000000000000000e+03 1.828641712734270230e+00 8.401908933141744029e+00 2.433251108265115439e-02 2.394455187736811361e-02 3.496301353114136812e-01
5.115000000000000000e+03 1.830690350673457090e+00 8.396477790986574874e+00 2.440410459896175457e-02 2.401418586165720778e-02 3.498817785298589111e-01
5.120000000000000000e+03 1.832740179552093229e+00 8.391061646116181549e+00 2.447584301484052177e-02 2.408395669199933642e-02 3.501331440387356331e-01
5.125000000000000000e+03 1.834791198156850323e+00 8.385660440620315015e+00 2.454772648934413007e-02 2.415386450166561935e-02 3.503842324919330675e-01
5.130000000000000000e+03 1.836843405276368912e+00 8.380274116876156754e+00 2.461975518155006329e-02 2.422390942388772186e-02 3.506350445425768791e-01
5.135000000000000000e+03 1.838896799701260187e+00 8.374902617546517547e+00 2.469192925055687174e-02 2.429409159185809408e-02 3.508855808430239587e-01
5.140000000000000000e+03 1.840951380224076672e+00 8.369545885578174804e+00 2.476424885548358240e-02 2.436441113872908973e-02 3.511358420448568718e-01
5.145000000000000000e+03 1.843007145639311783e+00 8.364203864200121075e+00 2.483671415546981343e-02 2.443486819761324022e-02 3.513858287988786411e-01
5.150000000000000000e+03 1.845064094743406935e+00 8.358876496921816113e+00 2.490932530967638128e-02 2.450546290158360507e-02 3.516355417551074170e-01
5.155000000000000000e+03 1.847122226334711570e+00 8.353563727531568617e+00 2.498208247728404136e-02 2.457619538367251250e-02 3.518849815627715927e-01
5.160000000000000000e+03 1.849181539213501591e+00 8.348265500094791847e+00 2.505498581749465714e-02 2.464706577687252043e-02 3.521341488703041422e-01
5.165000000000000000e+03 1.851242032181958042e+00 8.342981758952348059e+00 2.512803548953045085e-02 2.471807421413568795e-02 3.523830443253381239e-01
5.170000000000000000e+03 1.853303704044161559e+00 8.337712448718891167e+00 2.520123165263418730e-02 2.478922082837366897e-02 3.526316685747014068e-01
5.175000000000000000e+03 1.855366553606081270e+00 8.332457514281216504e+00 2.527457446606912878e-02 2.486050575245749017e-02 3.528800222644115636e-01
5.180000000000000000e+03 1.857430579675565241e+00 8.327216900796633681e+00 2.534806408911883385e-02 2.493192911921733590e-02 3.531281060396714300e-01
5.185000000000000000e+03 1.859495781062338704e+00 8.321990553691327008e+00 2.542170068108732736e-02 2.500349106144257594e-02 3.533759205448637752e-01
5.190000000000000000e+03 1.861562156577992955e+00 8.316778418658730132e+00 2.549548440129929469e-02 2.507519171188192855e-02 3.536234664235468617e-01
5.195000000000000000e+03 1.863629705035968254e+00 8.311580441657962837e+00 2.556941540909930116e-02 2.514703120324248906e-02 3.538707443184496704e-01
5.200000000000000000e+03 1.865698425251557158e+00 8.306396568912212786e+00 2.564349386385233326e-02 2.521900966819032308e-02 3.541177548714672385e-01
5.205000000000000000e+03 1.867768316041885646e+00 8.301226746907151011e+00 2.571771992494372924e-02 2.529112723935016474e-02 3.543644987236557742e-01
5.210000000000000000e+03 1.869839376225922001e+00 8.296070922389377600e+00 2.579209375177902649e-02 2.536338404930524315e-02 3.546109765152284932e-01
5.215000000000000000e+03 1.871911604624444614e+00 8.290929042364862056e+00 2.586661550378370825e-02 2.543578023059698406e-02 3.548571888855511780e-01
5.220000000000000000e+03 1.873985000060048645e+00 8.285801054097385432e+00 2.594128534040366155e-02 2.550831591572522497e-02 3.551031364731372930e-01
5.225000000000000000e+03 1.876059561357139804e+00 8.280686905107035756e+00 2.601610342110461521e-02 2.558099123714776060e-02 3.553488199156437655e-01
5.230000000000000000e+03 1.878135287341917703e+00 8.275586543168618192e+00 2.609106990537259779e-02 2.565380632728053723e-02 3.555942398498669332e-01
5.235000000000000000e+03 1.880212176842371408e+00 8.270499916310226851e+00 2.616618495271348308e-02 2.572676131849717385e-02 3.558393969117381039e-01
5.240000000000000000e+03 1.882290228688273226e+00 8.265426972811672712e+00 2.624144872265308029e-02 2.579985634312902815e-02 3.560842917363191140e-01
5.245000000000000000e+03 1.884369441711170490e+00 8.260367661203011025e+00 2.631686137473746023e-02 2.587309153346528320e-02 3.563289249577983875e-01
5.250000000000000000e+03 1.886449814744369791e+00 8.255321930263086472e+00 2.639242306853203587e-02 2.594646702175210096e-02 3.565732972094868836e-01
5.255000000000000000e+03 1.888531346622945417e+00 8.250289729017998397e+00 2.646813396362278012e-02 2.601998294019359712e-02 3.568174091238137113e-01
5.260000000000000000e+03 1.890614036183706270e+00 8.245271006739722353e+00 2.654399421961478600e-02 2.609363942095042910e-02 3.570612613323225215e-01
5.265000000000000000e+03 1.892697882265214293e+00 8.240265712944587762e+00 2.662000399613329363e-02 2.616743659614066339e-02 3.573048544656671766e-01
5.270000000000000000e+03 1.894782883707764709e+00 8.235273797391862161e+00 2.669616345282329814e-02 2.624137459783930371e-02 3.575481891536080870e-01
5.275000000000000000e+03 1.896869039353377362e+00 8.230295210082321233e+00 2.677247274934954277e-02 2.631545355807819730e-02 3.577912660250081034e-01
5.280000000000000000e+03 1.898956348045788056e+00 8.225329901256827725e+00 2.684893204539623782e-02 2.638967360884565683e-02 3.580340857078291861e-01
5.285000000000000000e+03 1.901044808630449001e+00 8.220377821394908580e+00 2.692554150066749780e-02 2.646403488208688703e-02 3.582766488291279638e-01
5.290000000000000000e+03 1.903134419954505052e+00 8.215438921213380041e+00 2.700230127488664061e-02 2.653853750970298908e-02 3.585189560150525701e-01
5.295000000000000000e+03 1.905225180866811474e+00 8.210513151664910581e+00 2.707921152779707227e-02 2.661318162355198053e-02 3.587610078908388123e-01
5.300000000000000000e+03 1.907317090217894640e+00 8.205600463936695732e+00 2.715627241916113502e-02 2.668796735544742491e-02 3.590028050808063420e-01
5.305000000000000000e+03 1.909410146859979784e+00 8.200700809449006812e+00 2.723348410876133205e-02 2.676289483715956624e-02 3.592443482083554906e-01
5.310000000000000000e+03 1.911504349646943934e+00 8.195814139853935032e+00 2.731084675639874892e-02 2.683796420041371575e-02 3.594856378959635501e-01
5.315000000000000000e+03 1.913599697434353875e+00 8.190940407033911796e+00 2.738836052189487502e-02 2.691317557689195533e-02 3.597266747651810537e-01
5.320000000000000000e+03 1.915696189079406420e+00 8.186079563100486567e+00 2.746602556508961901e-02 2.698852909823100388e-02 3.599674594366287783e-01
5.325000000000000000e+03 1.917793823440978596e+00 8.181231560392882685e+00 2.754384204584309562e-02 2.706402489602401790e-02 3.602079925299943031e-01
5.330000000000000000e+03 1.919892599379565690e+00 8.176396351476755697e+00 2.762181012403390826e-02 2.713966310181872149e-02 3.604482746640284008e-01
5.335000000000000000e+03 1.921992515757313003e+00 8.171573889142825564e+00 2.769992995956051252e-02 2.721544384711863801e-02 3.606883064565419295e-01
5.340000000000000000e+03 1.924093571437998085e+00 8.166764126405578139e+00 2.777820171234048410e-02 2.729136726338233024e-02 3.609280885244026682e-01
5.345000000000000000e+03 1.926195765287000317e+00 8.161967016502002181e+00 2.785662554231018578e-02 2.736743348202300488e-02 3.611676214835320420e-01
5.350000000000000000e+03 1.928299096171339766e+00 8.157182512890212678e+00 2.793520160942583250e-02 2.744364263440934176e-02 3.614069059489020130e-01
5.355000000000000000e+03 1.930403562959617680e+00 8.152410569248301542e+00 2.801393007366189541e-02 2.751999485186399502e-02 3.616459425345319723e-01
5.360000000000000000e+03 1.932509164522059120e+00 8.147651139472909421e+00 2.809281109501278115e-02 2.759649026566500865e-02 3.618847318534856861e-01
5.365000000000000000e+03 1.934615899730464106e+00 8.142904177678103039e+00 2.817184483349126356e-02 2.767312900704427259e-02 3.621232745178682988e-01
5.370000000000000000e+03 1.936723767458232714e+00 8.138169638194009181e+00 2.825103144912964603e-02 2.774991120718854967e-02 3.623615711388233906e-01
5.375000000000000000e+03 1.938832766580333322e+00 8.133447475565651175e+00 2.833037110197871716e-02 2.782683699723830992e-02 3.625996223265299245e-01
5.380000000000000000e+03 1.940942895973308824e+00 8.128737644551664587e+00 2.840986395210844465e-02 2.790390650828838276e-02 3.628374286901995815e-01
5.385000000000000000e+03 1.943054154515271081e+00 8.124040100123075092e+00 2.848951015960766303e-02 2.798111987138753726e-02 3.630749908380737634e-01
5.390000000000000000e+03 1.945166541085892931e+00 8.119354797462065676e+00 2.856930988458424373e-02 2.805847721753853066e-02 3.633123093774210388e-01
5.395000000000000000e+03 1.947280054566387308e+00 8.114681691960798915e+00 2.864926328716451906e-02 2.813597867769746658e-02 3.635493849145339240e-01
5.400000000000000000e+03 1.949394693839526349e+00 8.110020739220171748e+00 2.872937052749400394e-02 2.821362438277442986e-02 3.637862180547268287e-01
5.405000000000000000e+03 1.951510457789605413e+00 8.105371895048669728e+00 2.880963176573642440e-02 2.829141446363242149e-02 3.640228094023327809e-01
5.410000000000000000e+03 1.953627345302463070e+00 8.100735115461100477e+00 2.889004716207475149e-02 2.836934905108825719e-02 3.642591595607012622e-01
5.415000000000000000e+03 1.955745355265457119e+00 8.096110356677483466e+00 2.897061687671039984e-02 2.844742827591170697e-02 3.644952691321953209e-01
5.420000000000000000e+03 1.957864486567461038e+00 8.091497575121850971e+00 2.905134106986338380e-02 2.852565226882558536e-02 3.647311387181892961e-01
5.425000000000000000e+03 1.959984738098863755e+00 8.086896727421068576e+00 2.913221990177239720e-02 2.860402116050569932e-02 3.649667689190662090e-01
5.430000000000000000e+03 1.962106108751561440e+00 8.082307770403707181e+00 2.921325353269478217e-02 2.868253508158070952e-02 3.652021603342149869e-01
5.435000000000000000e+03 1.964228597418937072e+00 8.077730661098881271e+00 2.929444212290610930e-02 2.876119416263166542e-02 3.654373135620287982e-01
5.440000000000000000e+03 1.966352202995881537e+00 8.073165356735078291e+00 2.937578583270094440e-02 2.883999853419263321e-02 3.656722291999018881e-01
5.445000000000000000e+03 1.968476924378751214e+00 8.068611814739099941e+00 2.945728482239163074e-02 2.891894832674943988e-02 3.659069078442277467e-01
5.450000000000000000e+03 1.970602760465397729e+00 8.064069992734841819e+00 2.953893925230955189e-02 2.899804367074076614e-02 3.661413500903967222e-01
5.455000000000000000e+03 1.972729710155139982e+00 8.059539848542234708e+00 2.962074928280427830e-02 2.907728469655726511e-02 3.663755565327935226e-01
5.460000000000000000e+03 1.974857772348753704e+00 8.055021340176137912e+00 2.970271507424348742e-02 2.915667153454138891e-02 3.666095277647953288e-01
5.465000000000000000e+03 1.976986945948489449e+00 8.050514425845188171e+00 2.978483678701358828e-02 2.923620431498783270e-02 3.668432643787694070e-01
5.470000000000000000e+03 1.979117229858038174e+00 8.046019063950753392e+00 2.986711458151891999e-02 2.931588316814278186e-02 3.670767669660711108e-01
5.475000000000000000e+03 1.981248622982543450e+00 8.041535213085811762e+00 2.994954861818223402e-02 2.939570822420415827e-02 3.673100361170415495e-01
5.480000000000000000e+03 1.983381124228592141e+00 8.037062832033871729e+00 3.003213905744462134e-02 2.947567961332154401e-02 3.675430724210058675e-01
5.485000000000000000e+03 1.985514732504197744e+00 8.032601879767931052e+00 3.011488605976496424e-02 2.955579746559554646e-02 3.677758764662709123e-01
5.490000000000000000e+03 1.987649446718801061e+00 8.028152315449370136e+00 3.019778978562045330e-02 2.963606191107811400e-02 3.680084488401232923e-01
5.495000000000000000e+03 1.989785265783278856e+00 8.023714098426879104e+00 3.028085039550683366e-02 2.971647307977284477e-02 3.682407901288277108e-01
5.500000000000000000e+03 1.991922188609906552e+00 8.019287188235487918e+00 3.036406804993697570e-02 2.979703110163332488e-02 3.684729009176246906e-01
5.505000000000000000e+03 1.994060214112380214e+00 8.014871544595408182e+00 3.044744290944272069e-02 2.987773610656496021e-02 3.687047817907286862e-01
5.510000000000000000e+03 1.996199341205794120e+00 8.010467127411075694e+00 3.053097513457330228e-02 2.995858822442327984e-02 3.689364333313266964e-01
5.515000000000000000e+03 1.998339568806645206e+00 8.006073896770088183e+00 3.061466488589627624e-02 3.003958758501479309e-02 3.691678561215759879e-01
5.520000000000000000e+03 2.000480895832814188e+00 8.001691812942182125e+00 3.069851232399680926e-02 3.012073431809612206e-02 3.693990507426025416e-01
5.525000000000000000e+03 2.002623321203573337e+00 7.997320836378207787e+00 3.078251760947810570e-02 3.020202855337442496e-02 3.696300177744991089e-01
5.530000000000000000e+03 2.004766843839571155e+00 7.992960927709130914e+00 3.086668090296122019e-02 3.028347042050703181e-02 3.698607577963238802e-01
5.535000000000000000e+03 2.006911462662835266e+00 7.988612047745012212e+00 3.095100236508515484e-02 3.036506004910151033e-02 3.700912713860984860e-01
5.540000000000000000e+03 2.009057176596753980e+00 7.984274157474019695e+00 3.103548215650647410e-02 3.044679756871513515e-02 3.703215591208064428e-01
5.545000000000000000e+03 2.011203984566081626e+00 7.979947218061430370e+00 3.112012043789964127e-02 3.052868310885517925e-02 3.705516215763917098e-01
5.550000000000000000e+03 2.013351885496924343e+00 7.975631190848655905e+00 3.120491736995663345e-02 3.061071679897839348e-02 3.707814593277568571e-01
5.555000000000000000e+03 2.015500878316749844e+00 7.971326037352223892e+00 3.128987311338761457e-02 3.069289876849161033e-02 3.710110729487617331e-01
5.560000000000000000e+03 2.017650961954351452e+00 7.967031719262884337e+00 3.137498782891957189e-02 3.077522914675027976e-02 3.712404630122220217e-01
5.565000000000000000e+03 2.019802135339880511e+00 7.962748198444550063e+00 3.146026167729790157e-02 3.085770806305994027e-02 3.714696300899075210e-01
5.570000000000000000e+03 2.021954397404809978e+00 7.958475436933398761e+00 3.154569481928515967e-02 3.094033564667493172e-02 3.716985747525409223e-01
5.575000000000000000e+03 2.024107747081941522e+00 7.954213396936895997e+00 3.163128741566153396e-02 3.102311202679870414e-02 3.719272975697963113e-01
5.580000000000000000e+03 2.026262183305397091e+00 7.949962040832866172e+00 3.171703962722449005e-02 3.110603733258342912e-02 3.721557991102978913e-01
5.585000000000000000e+03 2.028417705010621575e+00 7.945721331168518198e+00 3.180295161478950000e-02 3.118911169313055495e-02 3.723840799416186509e-01
5.590000000000000000e+03 2.030574311134367260e+00 7.941491230659532441e+00 3.188902353918904309e-02 3.127233523748983862e-02 3.726121406302787542e-01
5.595000000000000000e+03 2.032732000614681844e+00 7.937271702189144129e+00 3.197525556127298052e-02 3.135570809465948461e-02 3.728399817417448192e-01
5.600000000000000000e+03 2.034890772390927527e+00 7.933062708807181451e+00 3.206164784190886768e-02 3.143923039358646060e-02 3.730676038404281414e-01
5.605000000000000000e+03 2.037050625403745929e+00 7.928864213729199584e+00 3.214820054198108679e-02 3.152290226316552951e-02 3.732950074896839165e-01
5.610000000000000000e+03 2.039211558595077189e+00 7.924676180335511688e+00 3.223491382239192238e-02 3.160672383224013421e-02 3.735221932518096866e-01
5.615000000000000000e+03 2.041373570908141755e+00 7.920498572170330043e+00 3.232178784406055522e-02 3.169069522960144686e-02 3.737491616880445067e-01
5.620000000000000000e+03 2.043536661287436385e+00 7.916331352940843225e+00 3.240882276792349942e-02 3.177481658398856323e-02 3.739759133585675577e-01
5.625000000000000000e+03 2.045700828678721273e+00 7.912174486516344807e+00 3.249601875493413061e-02 3.185908802408809332e-02 3.742024488224973133e-01
5.630000000000000000e+03 2.047866072029040918e+00 7.908027936927305213e+00 3.258337596606368514e-02 3.194350967853486906e-02 3.744287686378903190e-01
5.635000000000000000e+03 2.050032390286686823e+00 7.903891668364531498e+00 3.267089456229993472e-02 3.202808167591073701e-02 3.746548733617401372e-01
5.640000000000000000e+03 2.052199782401212591e+00 7.899765645178270290e+00 3.275857470464797055e-02 3.211280414474505795e-02 3.748807635499764590e-01
5.645000000000000000e+03 2.054368247323418828e+00 7.895649831877335600e+00 3.284641655412995354e-02 3.219767721351451950e-02 3.751064397574641607e-01
5.650000000000000000e+03 2.056537784005351366e+00 7.891544193128258833e+00 3.293442027178498238e-02 3.228270101064277531e-02 3.753319025380021379e-01
5.655000000000000000e+03 2.058708391400297710e+00 7.887448693754421036e+00 3.302258601866907978e-02 3.236787566450047282e-02 3.755571524443226394e-01
5.660000000000000000e+03 2.060880068462775494e+00 7.883363298735182489e+00 3.311091395585533809e-02 3.245320130340516307e-02 3.757821900280903793e-01
5.665000000000000000e+03 2.063052814148542691e+00 7.879287973205061135e+00 3.319940424443396099e-02 3.253867805562134230e-02 3.760070158399013152e-01
5.670000000000000000e+03 2.065226627414574523e+00 7.875222682452862166e+00 3.328805704551188183e-02 3.262430604935993850e-02 3.762316304292823710e-01
5.675000000000000000e+03 2.067401507219055912e+00 7.871167391920893763e+00 3.337687252021247220e-02 3.271008541277797832e-02 3.764560343446902713e-01
5.680000000000000000e+03 2.069577452521405014e+00 7.867122067204045166e+00 3.346585082967670766e-02 3.279601627397952385e-02 3.766802281335107638e-01
5.685000000000000000e+03 2.071754462282230147e+00 7.863086674049053926e+00 3.355499213506164813e-02 3.288209876101427093e-02 3.769042123420580093e-01
5.690000000000000000e+03 2.073932535463360871e+00 7.859061178353615063e+00 3.364429659754166607e-02 3.296833300187844429e-02 3.771279875155739147e-01
5.695000000000000000e+03 2.076111671027809358e+00 7.855045546165611903e+00 3.373376437830750973e-02 3.305471912451393712e-02 3.773515541982272459e-01
5.700000000000000000e+03 2.078291867939788151e+00 7.851039743682274974e+00 3.382339563856652520e-02 3.314125725680837353e-02 3.775749129331130716e-01
5.705000000000000000e+03 2.080473125164705284e+00 7.847043737249379092e+00 3.391319053954316987e-02 3.322794752659555262e-02 3.777980642622521534e-01
5.710000000000000000e+03 2.082655441669138519e+00 7.843057493360457322e+00 3.400314924247807569e-02 3.331479006165434520e-02 3.780210087265902241e-01
5.715000000000000000e+03 2.084838816420854446e+00 7.839080978656006060e+00 3.409327190862854184e-02 3.340178498970921422e-02 3.782437468659975432e-01
5.720000000000000000e+03 2.087023248388788943e+00 7.835114159922668797e+00 3.418355869926865270e-02 3.348893243843011763e-02 3.784662792192681202e-01
5.725000000000000000e+03 2.089208736543052058e+00 7.831157004092466956e+00 3.427400977568891699e-02 3.357623253543209202e-02 3.786886063241196032e-01
5.730000000000000000e+03 2.091395279854913358e+00 7.827209478242031615e+00 3.436462529919621922e-02 3.366368540827520406e-02 3.789107287171921135e-01
5.735000000000000000e+03 2.093582877296793487e+00 7.823271549591821028e+00 3.445540543111371562e-02 3.375129118446416887e-02 3.791326469340483007e-01
5.740000000000000000e+03 2.095771527842286819e+00 7.819343185505315930e+00 3.454635033278162515e-02 3.383904999144916187e-02 3.793543615091728993e-01
5.745000000000000000e+03 2.097961230466113935e+00 7.815424353488322318e+00 3.463746016555566826e-02 3.392696195662422282e-02 3.795758729759717287e-01
5.750000000000000000e+03 2.100151984144163375e+00 7.811515021188122354e+00 3.472873509080884324e-02 3.401502720732871993e-02 3.797971818667719157e-01
5.755000000000000000e+03 2.102343787853446333e+00 7.807615156392806455e+00 3.482017526992986500e-02 3.410324587084596210e-02 3.800182887128211173e-01
5.760000000000000000e+03 2.104536640572113537e+00 7.803724727030467712e+00 3.491178086432375482e-02 3.419161807440347645e-02 3.802391940442874096e-01
5.765000000000000000e+03 2.106730541279445035e+00 7.799843701168464705e+00 3.500355203541200000e-02 3.428014394517318875e-02 3.804598983902586218e-01
5.770000000000000000e+03 2.108925488955853300e+00 7.795972047012684314e+00 3.509548894463233870e-02 3.436882361027109034e-02 3.806804022787423913e-01
5.775000000000000000e+03 2.111121482582861475e+00 7.792109732906813413e+00 3.518759175343841999e-02 3.445765719675675937e-02 3.809007062366656648e-01
5.780000000000000000e+03 2.113318521143114914e+00 7.788256727331586582e+00 3.527986062330030342e-02 3.454664483163381872e-02 3.811208107898743647e-01
5.785000000000000000e+03 2.115516603620374525e+00 7.784412998904060466e+00 3.537229571570419534e-02 3.463578664184956135e-02 3.813407164631333335e-01
5.790000000000000000e+03 2.117715728999497227e+00 7.780578516376916554e+00 3.546489719215207420e-02 3.472508275429447150e-02 3.815604237801258902e-01
5.795000000000000000e+03 2.119915896266447053e+00 7.776753248637717775e+00 3.555766521416220405e-02 3.481453329580262712e-02 3.817799332634538856e-01
5.800000000000000000e+03 2.122117104408286714e+00 7.772937164708189961e+00 3.565059994326889858e-02 3.490413839315140848e-02 3.819992454346373134e-01
5.805000000000000000e+03 2.124319352413180706e+00 7.769130233743519298e+00 3.574370154102261138e-02 3.499389817306147038e-02 3.822183608141143107e-01
5.810000000000000000e+03 2.126522639270358450e+00 7.765332425031674646e+00 3.583697016898917953e-02 3.508381276219584705e-02 3.824372799212407137e-01
5.815000000000000000e+03 2.128726963970161368e+00 7.761543707992644592e+00 3.593040598875105879e-02 3.517388228716118725e-02 3.826560032742903905e-01
5.820000000000000000e+03 2.130932325503991365e+00 7.757764052177803293e+00 3.602400916190610924e-02 3.526410687450638737e-02 3.828745313904547976e-01
5.825000000000000000e+03 2.133138722864329928e+00 7.753993427269178618e+00 3.611777985006827535e-02 3.535448665072313951e-02 3.830928647858430902e-01
5.830000000000000000e+03 2.135346155044728800e+00 7.750231803078786008e+00 3.621171821486714182e-02 3.544502174224544583e-02 3.833110039754819565e-01
5.835000000000000000e+03 2.137554621039811309e+00 7.746479149547921494e+00 3.630582441794834303e-02 3.553571227544995159e-02 3.835289494733157833e-01
5.840000000000000000e+03 2.139764119845260382e+00 7.742735436746501776e+00 3.640009862097324383e-02 3.562655837665544556e-02 3.837467017922062129e-01
5.845000000000000000e+03 2.141974650457815876e+00 7.739000634872382101e+00 3.649454098561889098e-02 3.571756017212276979e-02 3.839642614439328083e-01
5.850000000000000000e+03 2.144186211875260817e+00 7.735274714250699013e+00 3.658915167357773557e-02 3.580871778805448657e-02 3.841816289391925543e-01
5.855000000000000000e+03 2.146398803096440933e+00 7.731557645333172246e+00 3.668393084655818814e-02 3.590003135059526007e-02 3.843988047875999681e-01
5.860000000000000000e+03 2.148612423121242454e+00 7.727849398697461680e+00 3.677887866628450075e-02 3.599150098583168284e-02 3.846157894976874880e-01
5.865000000000000000e+03 2.150827070950583675e+00 7.724149945046520749e+00 3.687399529449590652e-02 3.608312681979126968e-02 3.848325835769053072e-01
5.870000000000000000e+03 2.153042745586430939e+00 7.720459255207908988e+00 3.696928089294788944e-02 3.617490897844372749e-02 3.850491875316215951e-01
5.875000000000000000e+03 2.155259446031774662e+00 7.716777300133165873e+00 3.706473562341120603e-02 3.626684758769978256e-02 3.852656018671223870e-01
5.880000000000000000e+03 2.157477171290627993e+00 7.713104050897173991e+00 3.716035964767171879e-02 3.635894277341100711e-02 3.854818270876121389e-01
5.885000000000000000e+03 2.159695920368040145e+00 7.709439478697465375e+00 3.725615312753151331e-02 3.645119466137074909e-02 3.856978636962135609e-01
5.890000000000000000e+03 2.161915692270066636e+00 7.705783554853657513e+00 3.735211622480750365e-02 3.654360337731268199e-02 3.859137121949680060e-01
5.895000000000000000e+03 2.164136486003782167e+00 7.702136250806754347e+00 3.744824910133220247e-02 3.663616904691151255e-02 3.861293730848354699e-01
5.900000000000000000e+03 2.166358300577273521e+00 7.698497538118541428e+00 3.754455191895370025e-02 3.672889179578282121e-02 3.863448468656952017e-01
5.905000000000000000e+03 2.168581134999628013e+00 7.694867388470967740e+00 3.764102483953502692e-02 3.682177174948233350e-02 3.865601340363454819e-01
5.910000000000000000e+03 2.170804988280943704e+00 7.691245773665499108e+00 3.773766802495504002e-02 3.691480903350672499e-02 3.867752350945042328e-01
5.915000000000000000e+03 2.173029859432308530e+00 7.687632665622518680e+00 3.783448163710748102e-02 3.700800377329252489e-02 3.869901505368090189e-01
5.920000000000000000e+03 2.175255747465803857e+00 7.684028036380717630e+00 3.793146583790117654e-02 3.710135609421637976e-02 3.872048808588176017e-01
5.925000000000000000e+03 2.177482651394513802e+00 7.680431858096434361e+00 3.802862078926105144e-02 3.719486612159571964e-02 3.874194265550081617e-01
5.930000000000000000e+03 2.179710570232483491e+00 7.676844103043126921e+00 3.812594665312597775e-02 3.728853398068675273e-02 3.876337881187796319e-01
5.935000000000000000e+03 2.181939502994767466e+00 7.673264743610683780e+00 3.822344359145105758e-02 3.738235979668650538e-02 3.878479660424519748e-01
5.940000000000000000e+03 2.184169448697375060e+00 7.669693752304893586e+00 3.832111176620583287e-02 3.747634369473098331e-02 3.880619608172666268e-01
5.945000000000000000e+03 2.186400406357308146e+00 7.666131101746794130e+00 3.841895133937556217e-02 3.757048579989632348e-02 3.882757729333869978e-01
5.950000000000000000e+03 2.188632374992514507e+00 7.662576764672130558e+00 3.851696247295956221e-02 3.766478623719712870e-02 3.884894028798985266e-01
5.955000000000000000e+03 2.190865353621937128e+00 7.659030713930704337e+00 3.861514532897344920e-02 3.775924513158848000e-02 3.887028511448095691e-01
5.960000000000000000e+03 2.193099341265452029e+00 7.655492922485847451e+00 3.871350006944677263e-02 3.785386260796354263e-02 3.889161182150514540e-01
5.965000000000000000e+03 2.195334336943910891e+00 7.651963363413803343e+00 3.881202685642456962e-02 3.794863879115506489e-02 3.891292045764790375e-01
5.970000000000000000e+03 2.197570339679114415e+00 7.648442009903152261e+00 3.891072585196676120e-02 3.804357380593461485e-02 3.893421107138713699e-01
5.975000000000000000e+03 2.199807348493810988e+00 7.644928835254246380e+00 3.900959721814810377e-02 3.813866777701242772e-02 3.895548371109319730e-01
5.980000000000000000e+03 2.202045362411696239e+00 7.641423812878637811e+00 3.910864111705823071e-02 3.823392082903737110e-02 3.897673842502891173e-01
