#[MATERIAL DEFINITION FOR MC-GPU: interaction mean free path and sampling data from PENELOPE 2006]
#[MATERIAL NAME]
# lung(0.103:H_0.107:C_0.032:N_0.746:O_0.002:Na_0.002:P_0.003:S_0.003:Cl_0.002:K)
#[NOMINAL DENSITY (g/cm^3)]
# 0.207
#[NUMBER OF DATA VALUES]
# 24001
#[MEAN FREE PATHS (cm)]
#[Energy (eV)     | Rayleigh        | Compton         | Photoelectric   | TOTAL (+pair prod) (cm) | Rayleigh: max cumul prob F^2]
5.000000000000000000e+03 4.819425218244811404e+00 2.326018044959154807e+01 6.148148513164393425e-02 6.054901673039520676e-02 3.445607808800566496e-01
5.005000000000000000e+03 4.824889957538558427e+00 2.324436032089320392e+01 6.166617661368602871e-02 6.072889902796185790e-02 3.448188952166373888e-01
5.010000000000000000e+03 4.830358001101999754e+00 2.322858498998880705e+01 6.185124995733989189e-02 6.090914301925881569e-02 3.450767137248534344e-01
5.015000000000000000e+03 4.835829345676928348e+00 2.321285427950679292e+01 6.203670559142020896e-02 6.108974906730572224e-02 3.453342370776522063e-01
5.020000000000000000e+03 4.841303988011056880e+00 2.319716801297855469e+01 6.222254394479995177e-02 6.127071753502430496e-02 3.455914659473732775e-01
5.025000000000000000e+03 4.846781924858001744e+00 2.318152601483289388e+01 6.240876544640910212e-02 6.145204878523677361e-02 3.458484010057414348e-01
5.030000000000000000e+03 4.852263152977284832e+00 2.316592811039030053e+01 6.259537052523711509e-02 6.163374318066806856e-02 3.461050429238592963e-01
5.035000000000000000e+03 4.857747669134268698e+00 2.315037412585751397e+01 6.278235961033012957e-02 6.181580108394284928e-02 3.463613923722006493e-01
5.040000000000000000e+03 4.863235470100168101e+00 2.313486388832190954e+01 6.296973313079332057e-02 6.199822285758752743e-02 3.466174500206039011e-01
5.045000000000000000e+03 4.868726552651962081e+00 2.311939722574621925e+01 6.315749151578828324e-02 6.218100886402753297e-02 3.468732165382647503e-01
5.050000000000000000e+03 4.874220913572425040e+00 2.310397396696293981e+01 6.334563519453455249e-02 6.236415946558847984e-02 3.471286925937295265e-01
5.055000000000000000e+03 4.879718549650077009e+00 2.308859394166897161e+01 6.353416459630979729e-02 6.254767502449623540e-02 3.473838788548890832e-01
5.060000000000000000e+03 4.885219457679135679e+00 2.307325698042040329e+01 6.372308015044797491e-02 6.273155590287467220e-02 3.476387759889718598e-01
5.065000000000000000e+03 4.890723634459546609e+00 2.305796291462703351e+01 6.391238228634120444e-02 6.291580246274752763e-02 3.478933846625371085e-01
5.070000000000000000e+03 4.896231076796870418e+00 2.304271157654725144e+01 6.410207143343789327e-02 6.310041506603603079e-02 3.481477055414690103e-01
5.075000000000000000e+03 4.901741781502336082e+00 2.302750279928271482e+01 6.429214802124391670e-02 6.328539407456017230e-02 3.484017392909699584e-01
5.080000000000000000e+03 4.907255745392780533e+00 2.301233641677317721e+01 6.448261247932210449e-02 6.347073985003752472e-02 3.486554865755543409e-01
5.085000000000000000e+03 4.912772965290614025e+00 2.299721226379137917e+01 6.467346523729182450e-02 6.365645275408304826e-02 3.489089480590423786e-01
5.090000000000000000e+03 4.918293438023803255e+00 2.298213017593790042e+01 6.486470672482912148e-02 6.384253314820856340e-02 3.491621244045538530e-01
5.095000000000000000e+03 4.923817160425839390e+00 2.296708998963612913e+01 6.505633737166635622e-02 6.402898139382247333e-02 3.494150162745018884e-01
5.100000000000000000e+03 4.929344129335738955e+00 2.295209154212707858e+01 6.524835760759294112e-02 6.421579785223020809e-02 3.496676243305872345e-01
5.105000000000000000e+03 4.934874341597976333e+00 2.293713467146458029e+01 6.544076786245420219e-02 6.440298288463255916e-02 3.499199492337921047e-01
5.110000000000000000e+03 4.940407794062478430e+00 2.292221921651020367e+01 6.563356856615140678e-02 6.459053685212580442e-02 3.501719916443742364e-01
5.115000000000000000e+03 4.945944483584623796e+00 2.290734501692826797e+01 6.582676014864295710e-02 6.477846011570262408e-02 3.504237522218609513e-01
5.120000000000000000e+03 4.951484407025163570e+00 2.289251191318110301e+01 6.602034303994228082e-02 6.496675303624947773e-02 3.506752316250438262e-01
5.125000000000000000e+03 4.957027561250230363e+00 2.287771974652406826e+01 6.621431767011889957e-02 6.515541597454775624e-02 3.509264305119723648e-01
5.130000000000000000e+03 4.962573943131303622e+00 2.286296835900079216e+01 6.640868446929790170e-02 6.534444929127287971e-02 3.511773495399487799e-01
5.135000000000000000e+03 4.968123549545218509e+00 2.284825759343825879e+01 6.660344386766098301e-02 6.553385334699506071e-02 3.514279893655222753e-01
5.140000000000000000e+03 4.973676377374078861e+00 2.283358729344225324e+01 6.679859629544450395e-02 6.572362850217711161e-02 3.516783506444833840e-01
5.145000000000000000e+03 4.979232423505256300e+00 2.281895730339248374e+01 6.699414218294008627e-02 6.591377511717488868e-02 3.519284340318585835e-01
5.150000000000000000e+03 4.984791684831420433e+00 2.280436746843785301e+01 6.719008196049600090e-02 6.610429355223843007e-02 3.521782401819051334e-01
5.155000000000000000e+03 4.990354158250410066e+00 2.278981763449202802e+01 6.738641605851398986e-02 6.629518416750851406e-02 3.524277697481053018e-01
5.160000000000000000e+03 4.995919840665305145e+00 2.277530764822857634e+01 6.758314490745222225e-02 6.648644732301926819e-02 3.526770233831612589e-01
5.165000000000000000e+03 5.001488728984353926e+00 2.276083735707648259e+01 6.778026893782339302e-02 6.667808337869618462e-02 3.529260017389900250e-01
5.170000000000000000e+03 5.007060820120951661e+00 2.274640660921559032e+01 6.797778858019519477e-02 6.687009269435628678e-02 3.531747054667180308e-01
5.175000000000000000e+03 5.012636110993639704e+00 2.273201525357206165e+01 6.817570426519016513e-02 6.706247562970771292e-02 3.534231352166761209e-01
5.180000000000000000e+03 5.018214598526039794e+00 2.271766313981391860e+01 6.837401642348514552e-02 6.725523254434893905e-02 3.536712916383945027e-01
5.185000000000000000e+03 5.023796279646872698e+00 2.270335011834653116e+01 6.857272548581172522e-02 6.744836379776907032e-02 3.539191753805978613e-01
5.190000000000000000e+03 5.029381151289932461e+00 2.268907604030816927e+01 6.877183188295682426e-02 6.764186974934807695e-02 3.541667870912001415e-01
5.195000000000000000e+03 5.034969210394027783e+00 2.267484075756571471e+01 6.897133604576045907e-02 6.783575075835422685e-02 3.544141274172999401e-01
5.200000000000000000e+03 5.040560453902977578e+00 2.266064412271019535e+01 6.917123840511738009e-02 6.803000718394583424e-02 3.546611970051757323e-01
5.205000000000000000e+03 5.046154878765598539e+00 2.264648598905249699e+01 6.937153939197669705e-02 6.822463938517017712e-02 3.549079965002806536e-01
5.210000000000000000e+03 5.051752481935690042e+00 2.263236621061900422e+01 6.957223943734155980e-02 6.841964772096331693e-02 3.551545265472383361e-01
5.215000000000000000e+03 5.057353260371966641e+00 2.261828464214740819e+01 6.977333897226850601e-02 6.861503255014907154e-02 3.554007877898380796e-01
5.220000000000000000e+03 5.062957211038073169e+00 2.260424113908238652e+01 6.997483842786854369e-02 6.881079423143970919e-02 3.556467808710300771e-01
5.225000000000000000e+03 5.068564330902562531e+00 2.259023555757146440e+01 7.017673823530583277e-02 6.900693312343468555e-02 3.558925064329208632e-01
5.230000000000000000e+03 5.074174616938854854e+00 2.257626775446071576e+01 7.037903882579879533e-02 6.920344958462117113e-02 3.561379651167693727e-01
5.235000000000000000e+03 5.079788066125222379e+00 2.256233758729073102e+01 7.058174063061878334e-02 6.940034397337273286e-02 3.563831575629818338e-01
5.240000000000000000e+03 5.085404675444779699e+00 2.254844491429243192e+01 7.078484408109064763e-02 6.959761664794962555e-02 3.566280844111078263e-01
5.245000000000000000e+03 5.091024441885444674e+00 2.253458959438292553e+01 7.098834960859319587e-02 6.979526796649886122e-02 3.568727462998355082e-01
5.250000000000000000e+03 5.096647362439915341e+00 2.252077148716158916e+01 7.119225764455713867e-02 6.999329828705204426e-02 3.571171438669881182e-01
5.255000000000000000e+03 5.102273434105676131e+00 2.250699045290580003e+01 7.139656862046790675e-02 7.019170796752791097e-02 3.573612777495188131e-01
5.260000000000000000e+03 5.107902653884919708e+00 2.249324635256718707e+01 7.160128296786218149e-02 7.039049736572865201e-02 3.576051485835073374e-01
5.265000000000000000e+03 5.113535018784593156e+00 2.247953904776743883e+01 7.180640111833044847e-02 7.058966683934209119e-02 3.578487570041554156e-01
5.270000000000000000e+03 5.119170525816333139e+00 2.246586840079442027e+01 7.201192350351594273e-02 7.078921674594057523e-02 3.580921036457827555e-01
5.275000000000000000e+03 5.124809171996461465e+00 2.245223427459825416e+01 7.221785055511469043e-02 7.098914744298059909e-02 3.583351891418233293e-01
5.280000000000000000e+03 5.130450954345950443e+00 2.243863653278742021e+01 7.242418270487469001e-02 7.118945928780180676e-02 3.585780141248210984e-01
5.285000000000000000e+03 5.136095869890421106e+00 2.242507503962485060e+01 7.263092038459709188e-02 7.139015263762812924e-02 3.588205792264262950e-01
5.290000000000000000e+03 5.141743915660086373e+00 2.241154966002416771e+01 7.283806402613439424e-02 7.159122784956525876e-02 3.590628850773913139e-01
5.295000000000000000e+03 5.147395088689793674e+00 2.239806025954568014e+01 7.304561406139277457e-02 7.179268528060316068e-02 3.593049323075673263e-01
5.300000000000000000e+03 5.153049386018918376e+00 2.238460670439284783e+01 7.325357092232881451e-02 7.199452528761249304e-02 3.595467215459002275e-01
5.305000000000000000e+03 5.158706804691442827e+00 2.237118886140823193e+01 7.346193504095305249e-02 7.219674822734768738e-02 3.597882534204269733e-01
5.310000000000000000e+03 5.164367341755828456e+00 2.235780659807005577e+01 7.367070684932562619e-02 7.239935445644263279e-02 3.600295285582720828e-01
5.315000000000000000e+03 5.170030994265105484e+00 2.234445978248815479e+01 7.387988677956119909e-02 7.260234433141506127e-02 3.602705475856437523e-01
5.320000000000000000e+03 5.175697759276734367e+00 2.233114828340062630e+01 7.408947526382340942e-02 7.280571820866112154e-02 3.605113111278304694e-01
5.325000000000000000e+03 5.181367633852720367e+00 2.231787197016983981e+01 7.429947273433004651e-02 7.300947644445987539e-02 3.607518198091976824e-01
5.330000000000000000e+03 5.187040615059454574e+00 2.230463071277910103e+01 7.450987962334811032e-02 7.321361939496853766e-02 3.609920742531840254e-01
5.335000000000000000e+03 5.192716699967803606e+00 2.229142438182879360e+01 7.472069636319766950e-02 7.341814741622569584e-02 3.612320750822979876e-01
5.340000000000000000e+03 5.198395885653049220e+00 2.227825284853291521e+01 7.493192338624969639e-02 7.362306086414920070e-02 3.614718229181147491e-01
5.345000000000000000e+03 5.204078169194821690e+00 2.226511598471552134e+01 7.514356112492547035e-02 7.382836009453523640e-02 3.617113183812725730e-01
5.350000000000000000e+03 5.209763547677187745e+00 2.225201366280706594e+01 7.535561001169896467e-02 7.403404546306041611e-02 3.619505620914697519e-01
5.355000000000000000e+03 5.215452018188504901e+00 2.223894575584110456e+01 7.556807047909315511e-02 7.424011732527779905e-02 3.621895546674612776e-01
5.360000000000000000e+03 5.221143577821527160e+00 2.222591213745049998e+01 7.578094295968397509e-02 7.444657603662077627e-02 3.624282967270556766e-01
5.365000000000000000e+03 5.226838223673272665e+00 2.221291268186426748e+01 7.599422788609644375e-02 7.465342195239874079e-02 3.626667888871120127e-01
5.370000000000000000e+03 5.232535952845097427e+00 2.219994726390385154e+01 7.620792569100766356e-02 7.486065542780002968e-02 3.629050317635366119e-01
5.375000000000000000e+03 5.238236762442604721e+00 2.218701575897994616e+01 7.642203680714397540e-02 7.506827681788871831e-02 3.631430259712798980e-01
5.380000000000000000e+03 5.243940649575661972e+00 2.217411804308894574e+01 7.663656166728290142e-02 7.527628647760632730e-02 3.633807721243338396e-01
5.385000000000000000e+03 5.249647611358384758e+00 2.216125399280959840e+01 7.685150070425228463e-02 7.548468476177072617e-02 3.636182708357286186e-01
5.390000000000000000e+03 5.255357644909122605e+00 2.214842348529964866e+01 7.706685435093064973e-02 7.569347202507628602e-02 3.638555227175299667e-01
5.395000000000000000e+03 5.261070747350390597e+00 2.213562639829257250e+01 7.728262304024578755e-02 7.590264862209218644e-02 3.640925283808359447e-01
5.400000000000000000e+03 5.266786915808928882e+00 2.212286261009418453e+01 7.749880720517665633e-02 7.611221490726401140e-02 3.643292884357745565e-01
5.405000000000000000e+03 5.272506147415604971e+00 2.211013199957945474e+01 7.771540727875060617e-02 7.632217123491090438e-02 3.645658034915006396e-01
5.410000000000000000e+03 5.278228439305460817e+00 2.209743444618912278e+01 7.793242369404647374e-02 7.653251795922816347e-02 3.648020741561932567e-01
5.415000000000000000e+03 5.283953788617655967e+00 2.208476982992653603e+01 7.814985688419204268e-02 7.674325543428468788e-02 3.650381010370531421e-01
5.420000000000000000e+03 5.289682192495458679e+00 2.207213803135443797e+01 7.836770728236479300e-02 7.695438401402326933e-02 3.652738847402996480e-01
5.425000000000000000e+03 5.295413648086237046e+00 2.205953893159173163e+01 7.858597532179184553e-02 7.716590405226057825e-02 3.655094258711685806e-01
5.430000000000000000e+03 5.301148152541435898e+00 2.204697241231034965e+01 7.880466143575019788e-02 7.737781590268676124e-02 3.657447250339093126e-01
5.435000000000000000e+03 5.306885703016536837e+00 2.203443835573205689e+01 7.902376605756518402e-02 7.759011991886399784e-02 3.659797828317825630e-01
5.440000000000000000e+03 5.312626296671097315e+00 2.202193664462531331e+01 7.924328962061283343e-02 7.780281645422847114e-02 3.662145998670575109e-01
5.445000000000000000e+03 5.318369930668645829e+00 2.200946716230228617e+01 7.946323255831651278e-02 7.801590586208680123e-02 3.664491767410096301e-01
5.450000000000000000e+03 5.324116602176761859e+00 2.199702979261554603e+01 7.968359530415027037e-02 7.822938849561897334e-02 3.666835140539182469e-01
5.455000000000000000e+03 5.329866308366993266e+00 2.198462441995516770e+01 7.990437829163660188e-02 7.844326470787607586e-02 3.669176124050642085e-01
5.460000000000000000e+03 5.335619046414836752e+00 2.197225092924565004e+01 8.012558195434620056e-02 7.865753485177984228e-02 3.671514723927273294e-01
5.465000000000000000e+03 5.341374813499779606e+00 2.195990920594281803e+01 8.034720672589958090e-02 7.887219928012363657e-02 3.673850946141842821e-01
5.470000000000000000e+03 5.347133606805214434e+00 2.194759913603090595e+01 8.056925303996508025e-02 7.908725834557076007e-02 3.676184796657064879e-01
5.475000000000000000e+03 5.352895423518459594e+00 2.193532060601950207e+01 8.079172133025992741e-02 7.930271240065475680e-02 3.678516281425576739e-01
5.480000000000000000e+03 5.358660260830748534e+00 2.192307350294058210e+01 8.101461203055024263e-02 7.951856179777952449e-02 3.680845406389917085e-01
5.485000000000000000e+03 5.364428115937175612e+00 2.191085771434565643e+01 8.123792557464945552e-02 7.973480688921734394e-02 3.683172177482506027e-01
5.490000000000000000e+03 5.370198986036692546e+00 2.189867312830273249e+01 8.146166239641967899e-02 7.995144802710997534e-02 3.685496600625622898e-01
5.495000000000000000e+03 5.375972868332153709e+00 2.188651963339337314e+01 8.168582292977247250e-02 8.016848556346919952e-02 3.687818681731386827e-01
5.500000000000000000e+03 5.381749760030186458e+00 2.187439711871002146e+01 8.191040760866484527e-02 8.038591985017264074e-02 3.690138426701737306e-01
5.505000000000000000e+03 5.387529658341274619e+00 2.186230547385286371e+01 8.213541686710434941e-02 8.060375123896852678e-02 3.692455841428408658e-01
5.510000000000000000e+03 5.393312560479681217e+00 2.185024458892715060e+01 8.236085113914473621e-02 8.082198008147109536e-02 3.694770931792920599e-01
5.515000000000000000e+03 5.399098463663471570e+00 2.183821435454030890e+01 8.258671085888857899e-02 8.104060672916303665e-02 3.697083703666548815e-01
5.520000000000000000e+03 5.404887365114456443e+00 2.182621466179914194e+01 8.281299646048514984e-02 8.125963153339306466e-02 3.699394162910315531e-01
5.525000000000000000e+03 5.410679262058213368e+00 2.181424540230702647e+01 8.303970837813177963e-02 8.147905484537705523e-02 3.701702315374961749e-01
5.530000000000000000e+03 5.416474151724045782e+00 2.180230646816112738e+01 8.326684704607316412e-02 8.169887701619708842e-02 3.704008166900936705e-01
5.535000000000000000e+03 5.422272031344991916e+00 2.179039775194964790e+01 8.349441289860183579e-02 8.191909839680164285e-02 3.706311723318377327e-01
5.540000000000000000e+03 5.428072898157778603e+00 2.177851914674910105e+01 8.372240637005690100e-02 8.213971933800416625e-02 3.708612990447091029e-01
5.545000000000000000e+03 5.433876749402826611e+00 2.176667054612155283e+01 8.395082789482505303e-02 8.236074019048374162e-02 3.710911974096538501e-01
5.550000000000000000e+03 5.439683582324216893e+00 2.175485184411198958e+01 8.417967790733954514e-02 8.258216130478387984e-02 3.713208680065817613e-01
5.555000000000000000e+03 5.445493394169719892e+00 2.174306293524551847e+01 8.440895684208198080e-02 8.280398303131401849e-02 3.715503114143647312e-01
5.560000000000000000e+03 5.451306182190691629e+00 2.173130371452485221e+01 8.463866513357860832e-02 8.302620572034562219e-02 3.717795282108349864e-01
5.565000000000000000e+03 5.457121943642172290e+00 2.171957407742748103e+01 8.486880321640463687e-02 8.324882972201610998e-02 3.720085189727839747e-01
5.570000000000000000e+03 5.462940675782772537e+00 2.170787391990319648e+01 8.509937152518082248e-02 8.347185538632545532e-02 3.722372842759600897e-01
5.575000000000000000e+03 5.468762375874706372e+00 2.169620313837135228e+01 8.533037049457474488e-02 8.369528306313685218e-02 3.724658246950680596e-01
5.580000000000000000e+03 5.474587041183759162e+00 2.168456162971839873e+01 8.556180055929989148e-02 8.391911310217599340e-02 3.726941408037668935e-01
5.585000000000000000e+03 5.480414668979305404e+00 2.167294929129514003e+01 8.579366215411753094e-02 8.414334585303216707e-02 3.729222331746684937e-01
5.590000000000000000e+03 5.486245256534251880e+00 2.166136602091427577e+01 8.602595571383420125e-02 8.436798166515593889e-02 3.731501023793365457e-01
5.595000000000000000e+03 5.492078801125019005e+00 2.164981171684787853e+01 8.625868167330240366e-02 8.459302088785941587e-02 3.733777489882849632e-01
5.600000000000000000e+03 5.497915300031584351e+00 2.163828627782473291e+01 8.649184046742175447e-02 8.481846387031712065e-02 3.736051735709765009e-01
5.605000000000000000e+03 5.503754750537390272e+00 2.162678960302797648e+01 8.672543253113650097e-02 8.504431096156334080e-02 3.738323766958215888e-01
5.610000000000000000e+03 5.509597149929398974e+00 2.161532159209245307e+01 8.695945829943838024e-02 8.527056251049464075e-02 3.740593589301771660e-01
5.615000000000000000e+03 5.515442495498038333e+00 2.160388214510233595e+01 8.719391820736401011e-02 8.549721886586707231e-02 3.742861208403450712e-01
5.620000000000000000e+03 5.521290784537188578e+00 2.159247116258860189e+01 8.742881268999591615e-02 8.572428037629695186e-02 3.745126629915710992e-01
5.625000000000000000e+03 5.527142014344158305e+00 2.158108854552666855e+01 8.766414218246151857e-02 8.595174739025955579e-02 3.747389859480439456e-01
5.630000000000000000e+03 5.532996182219731551e+00 2.156973419533379044e+01 8.789990711993546368e-02 8.617962025609118837e-02 3.749650902728938195e-01
5.635000000000000000e+03 5.538853285468070986e+00 2.155840801386681704e+01 8.813610793763627937e-02 8.640789932198573997e-02 3.751909765281913334e-01
5.640000000000000000e+03 5.544713321396755212e+00 2.154710990341969179e+01 8.837274507082855390e-02 8.663658493599629695e-02 3.754166452749466698e-01
5.645000000000000000e+03 5.550576287316743240e+00 2.153583976672108946e+01 8.860981895482201998e-02 8.686567744603435060e-02 3.756420970731082498e-01
5.650000000000000000e+03 5.556442180542368270e+00 2.152459750693204654e+01 8.884733002497138821e-02 8.709517719986906159e-02 3.758673324815618999e-01
5.655000000000000000e+03 5.562310998391322592e+00 2.151338302764361288e+01 8.908527871667619447e-02 8.732508454512716289e-02 3.760923520581296864e-01
5.660000000000000000e+03 5.568182738184638936e+00 2.150219623287446069e+01 8.932366546538129948e-02 8.755539982929283482e-02 3.763171563595691382e-01
5.665000000000000000e+03 5.574057397246696688e+00 2.149103702706861796e+01 8.956249070657686107e-02 8.778612339970773282e-02 3.765417459415721368e-01
5.670000000000000000e+03 5.579934972905189028e+00 2.147990531509310230e+01 8.980175487579741822e-02 8.801725560356965516e-02 3.767661213587641389e-01
5.675000000000000000e+03 5.585815462491073191e+00 2.146880100223572896e+01 9.004145840862104455e-02 8.824879678793169646e-02 3.769902831647032881e-01
5.680000000000000000e+03 5.591698863338654846e+00 2.145772399420263810e+01 9.028160174067245691e-02 8.848074729970459296e-02 3.772142319118793607e-01
5.685000000000000000e+03 5.597585172785461971e+00 2.144667419711625556e+01 9.052218530761910187e-02 8.871310748565315596e-02 3.774379681517132101e-01
5.690000000000000000e+03 5.603474388172335452e+00 2.143565151751283082e+01 9.076320954517412554e-02 8.894587769239853392e-02 3.776614924345558788e-01
5.695000000000000000e+03 5.609366506843316280e+00 2.142465586234035158e+01 9.100467488909418090e-02 8.917905826641599198e-02 3.778848053096877657e-01
5.700000000000000000e+03 5.615261526145697957e+00 2.141368713895626641e+01 9.124658177517980251e-02 8.941264955403505077e-02 3.781079073253179601e-01
5.705000000000000000e+03 5.621159443430015834e+00 2.140274525512520043e+01 9.148893063927697467e-02 8.964665190144061047e-02 3.783307990285834088e-01
5.710000000000000000e+03 5.627060256049977838e+00 2.139183011901689468e+01 9.173172191727431424e-02 8.988106565467010589e-02 3.785534809655484723e-01
5.715000000000000000e+03 5.632963961362506211e+00 2.138094163920394664e+01 9.197495604510476375e-02 9.011589115961479712e-02 3.787759536812039252e-01
5.720000000000000000e+03 5.638870556727702876e+00 2.137007972465960748e+01 9.221863345874560525e-02 9.035112876201956134e-02 3.789982177194665125e-01
5.725000000000000000e+03 5.644780039508841440e+00 2.135924428475571091e+01 9.246275459421758602e-02 9.058677880748182421e-02 3.792202736231785054e-01
5.730000000000000000e+03 5.650692407072344992e+00 2.134843522926047044e+01 9.270731988758491859e-02 9.082284164145125460e-02 3.794421219341067020e-01
5.735000000000000000e+03 5.656607656787759453e+00 2.133765246833642593e+01 9.295232977495469784e-02 9.105931760922898743e-02 3.796637631929423162e-01
5.740000000000000000e+03 5.662525786027803321e+00 2.132689591253818762e+01 9.319778469247935737e-02 9.129620705596964980e-02 3.798851979393001455e-01
5.745000000000000000e+03 5.668446792168256643e+00 2.131616547281053187e+01 9.344368507635224252e-02 9.153351032667698950e-02 3.801064267117179596e-01
5.750000000000000000e+03 5.674370672588064046e+00 2.130546106048609545e+01 9.369003136281241206e-02 9.177122776620798283e-02 3.803274500476565567e-01
5.755000000000000000e+03 5.680297424669211281e+00 2.129478258728349616e+01 9.393682398814055812e-02 9.200935971926904600e-02 3.805482684834987639e-01
5.760000000000000000e+03 5.686227045796777624e+00 2.128412996530518342e+01 9.418406338866047722e-02 9.224790653041682609e-02 3.807688825545491595e-01
5.765000000000000000e+03 5.692159533358901236e+00 2.127350310703537062e+01 9.443175000073950054e-02 9.248686854405850644e-02 3.809892927950337960e-01
5.770000000000000000e+03 5.698094884746796929e+00 2.126290192533802781e+01 9.467988426078795261e-02 9.272624610445109883e-02 3.812094997380996442e-01
5.775000000000000000e+03 5.704033097354682447e+00 2.125232633345488864e+01 9.492846660525819380e-02 9.296603955570008349e-02 3.814295039158143164e-01
5.780000000000000000e+03 5.709974168579829090e+00 2.124177624500336847e+01 9.517749747064610522e-02 9.320624924176075521e-02 3.816493058591658993e-01
5.785000000000000000e+03 5.715918095822528855e+00 2.123125157397464591e+01 9.542697729349002012e-02 9.344687550643691887e-02 3.818689060980621219e-01
5.790000000000000000e+03 5.721864876486046469e+00 2.122075223473162708e+01 9.567690651037021043e-02 9.368791869337989020e-02 3.820883051613306325e-01
5.795000000000000000e+03 5.727814507976651370e+00 2.121027814200700945e+01 9.592728555790983047e-02 9.392937914608955052e-02 3.823075035767185548e-01
5.800000000000000000e+03 5.733766987703594609e+00 2.119982921090128158e+01 9.617811487277444504e-02 9.417125720791338916e-02 3.825265018708918774e-01
5.805000000000000000e+03 5.739722313079114180e+00 2.118940535688076920e+01 9.642939489167247358e-02 9.441355322204653122e-02 3.827453005694360089e-01
5.810000000000000000e+03 5.745680481518340876e+00 2.117900649577582683e+01 9.668112605135263660e-02 9.465626753152946160e-02 3.829639001968546674e-01
5.815000000000000000e+03 5.751641490439419080e+00 2.116863254377870618e+01 9.693330878860784150e-02 9.489940047925109201e-02 3.831823012765703806e-01
5.820000000000000000e+03 5.757605337263371759e+00 2.115828341744181529e+01 9.718594354027154658e-02 9.514295240794520825e-02 3.834005043309240968e-01
5.825000000000000000e+03 5.763572019414151981e+00 2.114795903367575747e+01 9.743903074321975943e-02 9.538692366019203839e-02 3.836185098811749628e-01
5.830000000000000000e+03 5.769541534318623377e+00 2.113765930974744478e+01 9.769257083436976019e-02 9.563131457841682337e-02 3.838363184475003798e-01
5.835000000000000000e+03 5.775513879406551254e+00 2.112738416327821511e+01 9.794656425068114236e-02 9.587612550489067742e-02 3.840539305489958366e-01
5.840000000000000000e+03 5.781489052110582172e+00 2.111713351224196344e+01 9.820101142915514669e-02 9.612135678172939457e-02 3.842713467036746877e-01
5.845000000000000000e+03 5.787467049866225288e+00 2.110690727496332642e+01 9.845591280683436974e-02 9.636700875089311558e-02 3.844885674284685417e-01
5.850000000000000000e+03 5.793447870111828379e+00 2.109670537011585267e+01 9.871126882080200060e-02 9.661308175418542588e-02 3.847055932392266508e-01
5.855000000000000000e+03 5.799431510288621361e+00 2.108652771672008797e+01 9.896707990818340295e-02 9.685957613325429927e-02 3.849224246507163549e-01
5.860000000000000000e+03 5.805417967840662996e+00 2.107637423414182010e+01 9.922334650614582363e-02 9.710649222959190363e-02 3.851390621766229705e-01
5.865000000000000000e+03 5.811407240214813363e+00 2.106624484209031323e+01 9.948006905189585303e-02 9.735383038453161719e-02 3.853555063295497352e-01
5.870000000000000000e+03 5.817399324860778265e+00 2.105613946061637876e+01 9.973724798268310265e-02 9.760159093925163676e-02 3.855717576210179742e-01
5.875000000000000000e+03 5.823394219231045277e+00 2.104605801011073041e+01 9.999488373579737410e-02 9.784977423477154990e-02 3.857878165614671007e-01
5.880000000000000000e+03 5.829391920780881975e+00 2.103600041130217946e+01 1.002529767485684231e-01 9.809838061195227943e-02 3.860036836602546706e-01
5.885000000000000000e+03 5.835392426968368795e+00 2.102596658525575890e+01 1.005115274583686935e-01 9.834741041149823448e-02 3.862193594256566609e-01
5.890000000000000000e+03 5.841395735254319987e+00 2.101595645337115670e+01 1.007705363026097645e-01 9.859686397395349411e-02 3.864348443648675802e-01
5.895000000000000000e+03 5.847401843102319141e+00 2.100596993738084350e+01 1.010300037187442657e-01 9.884674163970387506e-02 3.866501389840003022e-01
5.900000000000000000e+03 5.853410747978703199e+00 2.099600695934836025e+01 1.012899301442661132e-01 9.909704374897633505e-02 3.868652437880867323e-01
5.905000000000000000e+03 5.859422447352529595e+00 2.098606744166664484e+01 1.015503160167082891e-01 9.934777064183698825e-02 3.870801592810775849e-01
5.910000000000000000e+03 5.865436938695593128e+00 2.097615130705626640e+01 1.018111617736457419e-01 9.959892265819339507e-02 3.872948859658428833e-01
5.915000000000000000e+03 5.871454219482390435e+00 2.096625847856379821e+01 1.020724678526924861e-01 9.985050013779162015e-02 3.875094243441720154e-01
5.920000000000000000e+03 5.877474287190115554e+00 2.095638887956007679e+01 1.023342346915024070e-01 1.001025034202167457e-01 3.877237749167739000e-01
5.925000000000000000e+03 5.883497139298685674e+00 2.094654243373848601e+01 1.025964627277717034e-01 1.003549328448949535e-01 3.879379381832775420e-01
5.930000000000000000e+03 5.889522773290638114e+00 2.093671906511343295e+01 1.028591523992333362e-01 1.006077887510878482e-01 3.881519146422321986e-01
5.935000000000000000e+03 5.895551186651246667e+00 2.092691869801850757e+01 1.031223041436630100e-01 1.008610714778981343e-01 3.883657047911074356e-01
5.940000000000000000e+03 5.901582376868386604e+00 2.091714125710499417e+01 1.033859183988744684e-01 1.011147813642645499e-01 3.885793091262937926e-01
5.945000000000000000e+03 5.907616341432636808e+00 2.090738666734010209e+01 1.036499956027229080e-01 1.013689187489651977e-01 3.887927281431029503e-01
5.950000000000000000e+03 5.913653077837143890e+00 2.089765485400548783e+01 1.039145361931004125e-01 1.016234839706127158e-01 3.890059623357680629e-01
5.955000000000000000e+03 5.919692583577759848e+00 2.088794574269546089e+01 1.041795406079420033e-01 1.018784773676598698e-01 3.892190121974443140e-01
5.960000000000000000e+03 5.925734856152885754e+00 2.087825925931554494e+01 1.044450092852194090e-01 1.021338992783932809e-01 3.894318782202089158e-01
5.965000000000000000e+03 5.931779893063569453e+00 2.086859533008075829e+01 1.047109426629451306e-01 1.023897500409371025e-01 3.896445608950619421e-01
5.970000000000000000e+03 5.937827691813442499e+00 2.085895388151407914e+01 1.049773411791708605e-01 1.026460299932512449e-01 3.898570607119264952e-01
5.975000000000000000e+03 5.943878249908716604e+00 2.084933484044488239e+01 1.052442052719870930e-01 1.029027394731308609e-01 3.900693781596493714e-01
5.980000000000000000e+03 5.949931564858188970e+00 2.083973813400733022e+01 1.055115353795238603e-01 1.031598788182063742e-01 3.902815137260011169e-01
