#[MATERIAL DEFINITION FOR MC-GPU: interaction mean free path and sampling data from PENELOPE 2006]
#[MATERIAL NAME]
# Polystyrene(C8H8)
#[NOMINAL DENSITY (g/cm^3)]
# 1.03
#[NUMBER OF DATA VALUES]
# 24001
#[MEAN FREE PATHS (cm)]
#[Energy (eV)     | Rayleigh        | Compton         | Photoelectric   | TOTAL (+pair prod) (cm) | Rayleigh: max cumul prob F^2]
5.000000000000000000e+03 2.873565389645900581e+00 8.386466201507420948e+00 5.639892896282831802e-02 5.495087420050023125e-02 3.311302295681278207e-01
5.005000000000000000e+03 2.876850552218553680e+00 8.381566367826390973e+00 5.657483063930815459e-02 5.511884135129670181e-02 3.313792787979600862e-01
5.010000000000000000e+03 2.880136667606472578e+00 8.376680599544561900e+00 5.675111347352281010e-02 5.528715357086359111e-02 3.316282036007852096e-01
5.015000000000000000e+03 2.883423732985050059e+00 8.371808838813441511e+00 5.692777793545494153e-02 5.545581119758167393e-02 3.318770045351642772e-01
5.020000000000000000e+03 2.886711745533554918e+00 8.366951028083486008e+00 5.710482449524566240e-02 5.562481456962641707e-02 3.321256821577630025e-01
5.025000000000000000e+03 2.890000702435105318e+00 8.362107110102241947e+00 5.728225362319316200e-02 5.579416402496602950e-02 3.323742370233550014e-01
5.030000000000000000e+03 2.893290600876696317e+00 8.357277027912415335e+00 5.746006578975509232e-02 5.596385990136305139e-02 3.326226696848246789e-01
5.035000000000000000e+03 2.896581438049158130e+00 8.352460724850073959e+00 5.763826146554626439e-02 5.613390253637150218e-02 3.328709806931710591e-01
5.040000000000000000e+03 2.899873211147163676e+00 8.347658144542757341e+00 5.781684112134016784e-02 5.630429226733764392e-02 3.331191705975108386e-01
5.045000000000000000e+03 2.903165917369203264e+00 8.342869230907700384e+00 5.799580522806759703e-02 5.647502943139792730e-02 3.333672399450819945e-01
5.050000000000000000e+03 2.906459553917581484e+00 8.338093928149975298e+00 5.817515425681733104e-02 5.664611436547908191e-02 3.336151892812463937e-01
5.055000000000000000e+03 2.909754117998423428e+00 8.333332180760697483e+00 5.835488867883662639e-02 5.681754740629785250e-02 3.338630191494942334e-01
5.060000000000000000e+03 2.913049606821630277e+00 8.328583933515263382e+00 5.853500896552921162e-02 5.698932889035840388e-02 3.341107300914465394e-01
5.065000000000000000e+03 2.916346017600905949e+00 8.323849131471538598e+00 5.871551558845802821e-02 5.716145915395422217e-02 3.343583226468590519e-01
5.070000000000000000e+03 2.919643347553714463e+00 8.319127719968129497e+00 5.889640901934244804e-02 5.733393853316488126e-02 3.346057973536253893e-01
5.075000000000000000e+03 2.922941593901295931e+00 8.314419644622608629e+00 5.907768973005987634e-02 5.750676736385681304e-02 3.348531547477806014e-01
5.080000000000000000e+03 2.926240753868647460e+00 8.309724851329784556e+00 5.925935819264548793e-02 5.767994598168234288e-02 3.351003953635044996e-01
5.085000000000000000e+03 2.929540824684509825e+00 8.305043286259996549e+00 5.944141487929156809e-02 5.785347472207852393e-02 3.353475197331250990e-01
5.090000000000000000e+03 2.932841803581354601e+00 8.300374895857382640e+00 5.962386026234776232e-02 5.802735392026651950e-02 3.355945283871223928e-01
5.095000000000000000e+03 2.936143687795385926e+00 8.295719626838195637e+00 5.980669481432100698e-02 5.820158391125102026e-02 3.358414218541310725e-01
5.100000000000000000e+03 2.939446474566531631e+00 8.291077426189094268e+00 5.998991900787598724e-02 5.837616502981984867e-02 3.360882006609448025e-01
5.105000000000000000e+03 2.942750161138417919e+00 8.286448241165505380e+00 6.017353331583407544e-02 5.855109761054237000e-02 3.363348653325193283e-01
5.110000000000000000e+03 2.946054744758372035e+00 8.281832019289934621e+00 6.035753821117376822e-02 5.872638198776924251e-02 3.365814163919758073e-01
5.115000000000000000e+03 2.949360222677425369e+00 8.277228708350310882e+00 6.054193416703164410e-02 5.890201849563251463e-02 3.368278543606048059e-01
5.120000000000000000e+03 2.952666592150270830e+00 8.272638256398394674e+00 6.072672165670014305e-02 5.907800746804298120e-02 3.370741797578694632e-01
5.125000000000000000e+03 2.955973850435280603e+00 8.268060611748104805e+00 6.091190115362909302e-02 5.925434923869084963e-02 3.373203931014087664e-01
5.130000000000000000e+03 2.959281994794483506e+00 8.263495722973932089e+00 6.109747313142512709e-02 5.943104414104451172e-02 3.375664949070417697e-01
5.135000000000000000e+03 2.962591022493575643e+00 8.258943538909308657e+00 6.128343806385234960e-02 5.960809250835059220e-02 3.378124856887707028e-01
5.140000000000000000e+03 2.965900930801885327e+00 8.254404008645060742e+00 6.146979642483109407e-02 5.978549467363195730e-02 3.380583659587844125e-01
5.145000000000000000e+03 2.969211716992366412e+00 8.249877081527813516e+00 6.165654868843795100e-02 5.996325096968710411e-02 3.383041362274622488e-01
5.150000000000000000e+03 2.972523378341630274e+00 8.245362707158378157e+00 6.184369532890790500e-02 6.014136172909154837e-02 3.385497970033774506e-01
5.155000000000000000e+03 2.975835912129872085e+00 8.240860835390288130e+00 6.203123682063053923e-02 6.031982728419347378e-02 3.387953487933009211e-01
5.160000000000000000e+03 2.979149315640910789e+00 8.236371416328168493e+00 6.221917363815328283e-02 6.049864796711609122e-02 3.390407921022043358e-01
5.165000000000000000e+03 2.982463586162166003e+00 8.231894400326247307e+00 6.240750625617973169e-02 6.067782410975557095e-02 3.392861274332643062e-01
5.170000000000000000e+03 2.985778720984642920e+00 8.227429737986822644e+00 6.259623514956991208e-02 6.085735604378025160e-02 3.395313552878657104e-01
5.175000000000000000e+03 2.989094717402935864e+00 8.222977380158752680e+00 6.278536079334050279e-02 6.103724410063052219e-02 3.397764761656052457e-01
5.180000000000000000e+03 2.992411572715199419e+00 8.218537277935960006e+00 6.297488366266382198e-02 6.121748861151697640e-02 3.400214905642951480e-01
5.185000000000000000e+03 2.995729284223163091e+00 8.214109382655935931e+00 6.316480423286902068e-02 6.139808990742082195e-02 3.402663989799669109e-01
5.190000000000000000e+03 2.999047849232118867e+00 8.209693645898241243e+00 6.335512297944181914e-02 6.157904831909312426e-02 3.405112019068746720e-01
5.195000000000000000e+03 3.002367265050895018e+00 8.205290019483088670e+00 6.354584037802341046e-02 6.176036417705284276e-02 3.407558998374990988e-01
5.200000000000000000e+03 3.005687528991859203e+00 8.200898455469838311e+00 6.373695690441132100e-02 6.194203781158721250e-02 3.410004932625510521e-01
5.205000000000000000e+03 3.009008638370914035e+00 8.196518906155580098e+00 6.392847303455910513e-02 6.212406955275053683e-02 3.412449826709747502e-01
5.210000000000000000e+03 3.012330590507493078e+00 8.192151324073668306e+00 6.412038924457652556e-02 6.230645973036380569e-02 3.414893685499520992e-01
5.215000000000000000e+03 3.015653382724527543e+00 8.187795661992323559e+00 6.431270601072909543e-02 6.248920867401354384e-02 3.417336513849059676e-01
5.220000000000000000e+03 3.018977012348464939e+00 8.183451872913195757e+00 6.450542380943807830e-02 6.267231671305104057e-02 3.419778316595039058e-01
5.225000000000000000e+03 3.022301476709247314e+00 8.179119910069978516e+00 6.469854311728061302e-02 6.285578417659194728e-02 3.422219098556619765e-01
5.230000000000000000e+03 3.025626773140313031e+00 8.174799726926977428e+00 6.489206441099000522e-02 6.303961139351565990e-02 3.424658864535481406e-01
5.235000000000000000e+03 3.028952898978570563e+00 8.170491277177767131e+00 6.508598816745458926e-02 6.322379869246370909e-02 3.427097619315863097e-01
5.240000000000000000e+03 3.032279851564412265e+00 8.166194514743784438e+00 6.528031486371868586e-02 6.340834640183987125e-02 3.429535367664597323e-01
5.245000000000000000e+03 3.035607628241696609e+00 8.161909393772960541e+00 6.547504497698281023e-02 6.359325484980973830e-02 3.431972114331148238e-01
5.250000000000000000e+03 3.038936226357725534e+00 8.157635868638397625e+00 6.567017898460165981e-02 6.377852436429806704e-02 3.434407864047648862e-01
5.255000000000000000e+03 3.042265643263273756e+00 8.153373893936963768e+00 6.586571736408687594e-02 6.396415527299074977e-02 3.436842621528938824e-01
5.260000000000000000e+03 3.045595876312532813e+00 8.149123424488024625e+00 6.606166059310421279e-02 6.415014790333141426e-02 3.439276391472598782e-01
5.265000000000000000e+03 3.048926922863143041e+00 8.144884415332054317e+00 6.625800914947542475e-02 6.433650258252246457e-02 3.441709178558990390e-01
5.270000000000000000e+03 3.052258780276167816e+00 8.140656821729349346e+00 6.645476351117761415e-02 6.452321963752395695e-02 3.444140987451291824e-01
5.275000000000000000e+03 3.055591445916094884e+00 8.136440599158698106e+00 6.665192415634323131e-02 6.471029939505258677e-02 3.446571822795536644e-01
5.280000000000000000e+03 3.058924917150810607e+00 8.132235703316105457e+00 6.684949156325943609e-02 6.489774218158074481e-02 3.449001689220649869e-01
5.285000000000000000e+03 3.062259191351618171e+00 8.128042090113478224e+00 6.704746621036915266e-02 6.508554832333650342e-02 3.451430591338484066e-01
5.290000000000000000e+03 3.065594265893197168e+00 8.123859715677363980e+00 6.724584857626943191e-02 6.527371814630160418e-02 3.453858533743859316e-01
5.295000000000000000e+03 3.068930138153640019e+00 8.119688536347640095e+00 6.744463913971363023e-02 6.546225197621272085e-02 3.456285521014599849e-01
5.300000000000000000e+03 3.072266805514393795e+00 8.115528508676307595e+00 6.764383837960868950e-02 6.565115013855815640e-02 3.458711557711570128e-01
5.305000000000000000e+03 3.075604265360304623e+00 8.111379589426167769e+00 6.784344677501803755e-02 6.584041295857995246e-02 3.461136648378713709e-01
5.310000000000000000e+03 3.078942515079552855e+00 8.107241735569646224e+00 6.804346480515784112e-02 6.603004076126965660e-02 3.463560797543088765e-01
5.315000000000000000e+03 3.082281552063714347e+00 8.103114904287471276e+00 6.824389294940166883e-02 6.622003387137198605e-02 3.465984009714909719e-01
5.320000000000000000e+03 3.085621373707674753e+00 8.098999052967545964e+00 6.844473168727505108e-02 6.641039261337899902e-02 3.468406289387579444e-01
5.325000000000000000e+03 3.088961977409704129e+00 8.094894139203614003e+00 6.864598149846079522e-02 6.660111731153439685e-02 3.470827641037730893e-01
5.330000000000000000e+03 3.092303360571371229e+00 8.090800120794158445e+00 6.884764286279430878e-02 6.679220828982848635e-02 3.473248069125263737e-01
5.335000000000000000e+03 3.095645520597597233e+00 8.086716955741106716e+00 6.904971626026672193e-02 6.698366587200035860e-02 3.475667578093379340e-01
5.340000000000000000e+03 3.098988454896624223e+00 8.082644602248683086e+00 6.925220217102356912e-02 6.717549038153597385e-02 3.478086172368621831e-01
5.345000000000000000e+03 3.102332160879987644e+00 8.078583018722227393e+00 6.945510107536394251e-02 6.736768214166663493e-02 3.480503856360915305e-01
5.350000000000000000e+03 3.105676635962565157e+00 8.074532163766964032e+00 6.965841345374303162e-02 6.756024147537066649e-02 3.482920634463598231e-01
5.355000000000000000e+03 3.109021877562491820e+00 8.070491996186913042e+00 6.986213978676815428e-02 6.775316870536907121e-02 3.485336511053465092e-01
5.360000000000000000e+03 3.112367883101238242e+00 8.066462474983628894e+00 7.006628055520312814e-02 6.794646415412884666e-02 3.487751490490801909e-01
5.365000000000000000e+03 3.115714650003524877e+00 8.062443559355140010e+00 7.027083623996432937e-02 6.814012814385857209e-02 3.490165577119424545e-01
5.370000000000000000e+03 3.119062175697383754e+00 8.058435208694726626e+00 7.047580732212367638e-02 6.833416099651065667e-02 3.492578775266716451e-01
5.375000000000000000e+03 3.122410457614090085e+00 8.054437382589835437e+00 7.068119428290588202e-02 6.852856303377781455e-02 3.494991089243666416e-01
5.380000000000000000e+03 3.125759493188197347e+00 8.050450040820924968e+00 7.088699760369047975e-02 6.872333457709445259e-02 3.497402523344905201e-01
5.385000000000000000e+03 3.129109279857520409e+00 8.046473143360328706e+00 7.109321776601087994e-02 6.891847594763504670e-02 3.499813081848744956e-01
5.390000000000000000e+03 3.132459815063126651e+00 8.042506650371164412e+00 7.129985525155492498e-02 6.911398746631390588e-02 3.502222769017215853e-01
5.395000000000000000e+03 3.135811096249314200e+00 8.038550522206220350e+00 7.150691054216343212e-02 6.930986945378313224e-02 3.504631589096104949e-01
5.400000000000000000e+03 3.139163120863643019e+00 8.034604719406841511e+00 7.171438411983198369e-02 6.950612223043364790e-02 3.507039546314991707e-01
5.405000000000000000e+03 3.142515886356873622e+00 8.030669202701865572e+00 7.192227646670897034e-02 6.970274611639247497e-02 3.509446644887288524e-01
5.410000000000000000e+03 3.145869390183015479e+00 8.026743933006494913e+00 7.213058806509743681e-02 6.989974143152405395e-02 3.511852889010276813e-01
5.415000000000000000e+03 3.149223629799288826e+00 8.022828871421255670e+00 7.233931939745359696e-02 7.009710849542784283e-02 3.514258282865145855e-01
5.420000000000000000e+03 3.152578602666118446e+00 8.018923979230910604e+00 7.254847094638744442e-02 7.029484762743841431e-02 3.516662830617027224e-01
5.425000000000000000e+03 3.155934306247145216e+00 8.015029217903400394e+00 7.275804319466266934e-02 7.049295914662452589e-02 3.519066536415038637e-01
5.430000000000000000e+03 3.159290738009203459e+00 8.011144549088781375e+00 7.296803662519638078e-02 7.069144337178828730e-02 3.521469404392315594e-01
5.435000000000000000e+03 3.162647895422309841e+00 8.007269934618193474e+00 7.317845172105875984e-02 7.089030062146389755e-02 3.523871438666054123e-01
5.440000000000000000e+03 3.166005775959686019e+00 8.003405336502785516e+00 7.338928896547454450e-02 7.108953121391865804e-02 3.526272643337543533e-01
5.445000000000000000e+03 3.169364377097708463e+00 7.999550716932731120e+00 7.360054884181997659e-02 7.128913546714908678e-02 3.528673022492209710e-01
5.450000000000000000e+03 3.172723696315945308e+00 7.995706038276146010e+00 7.381223183362634055e-02 7.148911369888376333e-02 3.531072580199647315e-01
5.455000000000000000e+03 3.176083731097125273e+00 7.991871263078105692e+00 7.402433842457750712e-02 7.168946622658023404e-02 3.533471320513661973e-01
5.460000000000000000e+03 3.179444478927126116e+00 7.988046354059618714e+00 7.423686909851012761e-02 7.189019336742435984e-02 3.535869247472305799e-01
5.465000000000000000e+03 3.182805937294995058e+00 7.984231274116615928e+00 7.444982433941481348e-02 7.209129543833095455e-02 3.538266365097914590e-01
5.470000000000000000e+03 3.186168103692915476e+00 7.980425986318961940e+00 7.466320463143454045e-02 7.229277275594134244e-02 3.540662677397148350e-01
5.475000000000000000e+03 3.189530975616211794e+00 7.976630453909449692e+00 7.487701045886559215e-02 7.249462563662380232e-02 3.543058188361024596e-01
5.480000000000000000e+03 3.192894550563357026e+00 7.972844640302811925e+00 7.509124230615779605e-02 7.269685439647277647e-02 3.545452901964959436e-01
5.485000000000000000e+03 3.196258826035930145e+00 7.969068509084769936e+00 7.530590065791280263e-02 7.289945935130680288e-02 3.547846822168806424e-01
5.490000000000000000e+03 3.199623799538638291e+00 7.965302024011031712e+00 7.552098599888526498e-02 7.310244081666870952e-02 3.550239952916889319e-01
5.495000000000000000e+03 3.202989468579328314e+00 7.961545149006301614e+00 7.573649881398444861e-02 7.330579910782659969e-02 3.552632298138044264e-01
5.500000000000000000e+03 3.206355830668917939e+00 7.957797848163408183e+00 7.595243958826951303e-02 7.350953453976856455e-02 3.555023861745654767e-01
5.505000000000000000e+03 3.209722883321462827e+00 7.954060085742242769e+00 7.616880880695463263e-02 7.371364742720688812e-02 3.557414647637689997e-01
5.510000000000000000e+03 3.213090624054094402e+00 7.950331826168888227e+00 7.638560695540549950e-02 7.391813808457395329e-02 3.559804659696743090e-01
5.515000000000000000e+03 3.216459050387052265e+00 7.946613034034638368e+00 7.660283451914107200e-02 7.412300682602326884e-02 3.562193901790068895e-01
5.520000000000000000e+03 3.219828159843646009e+00 7.942903674095095568e+00 7.682049198383208988e-02 7.432825396542730445e-02 3.564582377769621169e-01
5.525000000000000000e+03 3.223197949950272090e+00 7.939203711269207098e+00 7.703857983530222608e-02 7.453387981637787929e-02 3.566970091472085880e-01
5.530000000000000000e+03 3.226568418236403613e+00 7.935513110638370726e+00 7.725709855952754557e-02 7.473988469218494080e-02 3.569357046718927284e-01
5.535000000000000000e+03 3.229939562234581896e+00 7.931831837445495026e+00 7.747604864263663016e-02 7.494626890587594015e-02 3.571743247316418457e-01
5.540000000000000000e+03 3.233311379480406700e+00 7.928159857094108531e+00 7.769543057091027327e-02 7.515303277019488859e-02 3.574128697055680703e-01
5.545000000000000000e+03 3.236683867512534896e+00 7.924497135147451132e+00 7.791524483078141050e-02 7.536017659760156640e-02 3.576513399712722419e-01
5.550000000000000000e+03 3.240057023872671582e+00 7.920843637327579678e+00 7.813549190883505025e-02 7.556770070027070407e-02 3.578897359048475724e-01
5.555000000000000000e+03 3.243430846105581633e+00 7.917199329514441608e+00 7.835617229180964760e-02 7.577560539009260687e-02 3.581280578808831994e-01
5.560000000000000000e+03 3.246805331759040847e+00 7.913564177745061379e+00 7.857728646659346838e-02 7.598389097866896369e-02 3.583663062724681825e-01
5.565000000000000000e+03 3.250180478383888794e+00 7.909938148212576792e+00 7.879883492022908553e-02 7.619255777731644141e-02 3.586044814511951673e-01
5.570000000000000000e+03 3.253556283533972859e+00 7.906321207265424533e+00 7.902081813990985415e-02 7.640160609706261874e-02 3.588425837871638824e-01
5.575000000000000000e+03 3.256932744766170451e+00 7.902713321406446667e+00 7.924323661298161847e-02 7.661103624864684658e-02 3.590806136489853584e-01
5.580000000000000000e+03 3.260309859640365460e+00 7.899114457292038871e+00 7.946609082694112980e-02 7.682084854251809702e-02 3.593185714037850365e-01
5.585000000000000000e+03 3.263687625719472685e+00 7.895524581731272029e+00 7.968938126943869715e-02 7.703104328883671192e-02 3.595564574172070982e-01
5.590000000000000000e+03 3.267066040569395646e+00 7.891943661685065337e+00 7.991310842827520355e-02 7.724162079747090570e-02 3.597942720534176853e-01
5.595000000000000000e+03 3.270445101759037243e+00 7.888371664265336314e+00 8.013727279140306359e-02 7.745258137799689024e-02 3.600320156751090073e-01
5.600000000000000000e+03 3.273824806860306413e+00 7.884808556734140161e+00 8.036187484692774996e-02 7.766392533969969370e-02 3.602696886435026169e-01
5.605000000000000000e+03 3.277205153448087049e+00 7.881254306502866847e+00 8.058691508310458773e-02 7.787565299156934406e-02 3.605072913183536842e-01
5.610000000000000000e+03 3.280586139100254872e+00 7.877708881131376906e+00 8.081239398834198784e-02 7.808776464230325620e-02 3.607448240579542165e-01
5.615000000000000000e+03 3.283967761397664553e+00 7.874172248327202972e+00 8.103831205119936543e-02 7.830026060030345625e-02 3.609822872191369991e-01
5.620000000000000000e+03 3.287350017924142609e+00 7.870644375944726434e+00 8.126466976038761170e-02 7.851314117367644285e-02 3.612196811572790933e-01
5.625000000000000000e+03 3.290732906266466085e+00 7.867125231984368305e+00 8.149146760476837226e-02 7.872640667023175776e-02 3.614570062263059436e-01
5.630000000000000000e+03 3.294116424014405187e+00 7.863614784591749896e+00 8.171870607335629533e-02 7.894005739748329031e-02 3.616942627786945974e-01
5.635000000000000000e+03 3.297500568760660222e+00 7.860113002056941411e+00 8.194638565531597862e-02 7.915409366264578028e-02 3.619314511654775912e-01
5.640000000000000000e+03 3.300885338100892685e+00 7.856619852813622629e+00 8.217450683996367633e-02 7.936851577263570601e-02 3.621685717362466694e-01
5.645000000000000000e+03 3.304270729633707937e+00 7.853135305438316394e+00 8.240307011676691051e-02 7.958332403407014644e-02 3.624056248391566148e-01
5.650000000000000000e+03 3.307656740960655206e+00 7.849659328649584822e+00 8.263207597534473481e-02 7.979851875326630928e-02 3.626426108209284682e-01
5.655000000000000000e+03 3.311043369686210713e+00 7.846191891307264576e+00 8.286152490546631888e-02 8.001410023623964363e-02 3.628795300268536361e-01
5.660000000000000000e+03 3.314430613417783444e+00 7.842732962411672837e+00 8.309141739705268315e-02 8.023006878870445058e-02 3.631163828007973882e-01
5.665000000000000000e+03 3.317818469765719591e+00 7.839282511102840800e+00 8.332175394017608816e-02 8.044642471607292566e-02 3.633531694852025207e-01
5.670000000000000000e+03 3.321206936343275018e+00 7.835840506659745408e+00 8.355253502505968766e-02 8.066316832345384047e-02 3.635898904210930205e-01
5.675000000000000000e+03 3.324596010766606824e+00 7.832406918499580151e+00 8.378376114207625180e-02 8.088029991565075238e-02 3.638265459480778952e-01
5.680000000000000000e+03 3.327985690654810202e+00 7.828981716176929062e+00 8.401543278175148399e-02 8.109781979716450262e-02 3.640631364043543372e-01
5.685000000000000000e+03 3.331375973629858489e+00 7.825564869383095257e+00 8.424755043475982974e-02 8.131572827218824795e-02 3.642996621267119428e-01
5.690000000000000000e+03 3.334766857316644018e+00 7.822156347945278476e+00 8.448011459192841799e-02 8.153402564461081914e-02 3.645361234505360426e-01
5.695000000000000000e+03 3.338158339342940817e+00 7.818756121825899186e+00 8.471312574423400799e-02 8.175271221801286292e-02 3.647725207098116429e-01
5.700000000000000000e+03 3.341550417339409940e+00 7.815364161121819642e+00 8.494658438280339174e-02 8.197178829566660607e-02 3.650088542371264233e-01
5.705000000000000000e+03 3.344943088939614118e+00 7.811980436063614697e+00 8.518049099891567000e-02 8.219125418053728482e-02 3.652451243636750666e-01
5.710000000000000000e+03 3.348336351779977793e+00 7.808604917014865698e+00 8.541484608399928236e-02 8.241111017527955052e-02 3.654813314192625340e-01
5.715000000000000000e+03 3.351730203499801330e+00 7.805237574471421524e+00 8.564965012963324242e-02 8.263135658223806634e-02 3.657174757323076730e-01
5.720000000000000000e+03 3.355124641741265012e+00 7.801878379060676494e+00 8.588490362754744312e-02 8.285199370344684122e-02 3.659535576298469928e-01
5.725000000000000000e+03 3.358519664149409500e+00 7.798527301540858936e+00 8.612060706962233747e-02 8.307302184062849426e-02 3.661895774375383272e-01
5.730000000000000000e+03 3.361915268372132726e+00 7.795184312800334858e+00 8.635676094788796719e-02 8.329444129519240902e-02 3.664255354796639441e-01
5.735000000000000000e+03 3.365311452060177455e+00 7.791849383856901845e+00 8.659336575452479534e-02 8.351625236823478904e-02 3.666614320791349857e-01
5.740000000000000000e+03 3.368708212867160601e+00 7.788522485857053645e+00 8.683042198186458061e-02 8.373845536053893535e-02 3.668972675574942444e-01
5.745000000000000000e+03 3.372105548449514156e+00 7.785203590075344238e+00 8.706793012238756013e-02 8.396105057257169380e-02 3.671330422349202149e-01
5.750000000000000000e+03 3.375503456466542929e+00 7.781892667913630213e+00 8.730589066872583570e-02 8.418403830448605019e-02 3.673687564302307029e-01
5.755000000000000000e+03 3.378901934580363697e+00 7.778589690900436615e+00 8.754430411366097287e-02 8.440741885611800777e-02 3.676044104608860996e-01
5.760000000000000000e+03 3.382300980455929640e+00 7.775294630690263276e+00 8.778317095012369564e-02 8.463119252698578232e-02 3.678400046429933790e-01
5.765000000000000000e+03 3.385700591761018785e+00 7.772007459062880486e+00 8.802249167119580164e-02 8.485535961629067647e-02 3.680755392913091506e-01
5.770000000000000000e+03 3.389100766166240231e+00 7.768728147922676186e+00 8.826226677010889921e-02 8.507992042291526169e-02 3.683110147192437678e-01
5.775000000000000000e+03 3.392501501345003501e+00 7.765456669297996939e+00 8.850249674024400492e-02 8.530487524542228195e-02 3.685464312388646579e-01
5.780000000000000000e+03 3.395902794973546079e+00 7.762192995340453372e+00 8.874318207513229306e-02 8.553022438205465372e-02 3.687817891608996534e-01
5.785000000000000000e+03 3.399304644730905878e+00 7.758937098324275361e+00 8.898432326845509555e-02 8.575596813073474434e-02 3.690170887947409328e-01
5.790000000000000000e+03 3.402707048298920345e+00 7.755688950645669877e+00 8.922592081404276398e-02 8.598210678906238746e-02 3.692523304484484070e-01
5.795000000000000000e+03 3.406110003362225580e+00 7.752448524822137088e+00 8.946797520587536356e-02 8.620864065431518841e-02 3.694875144287531610e-01
5.800000000000000000e+03 3.409513507608254113e+00 7.749215793491846860e+00 8.971048693808324204e-02 8.643557002344798290e-02 3.697226410410612285e-01
5.805000000000000000e+03 3.412917558727237122e+00 7.745990729412966402e+00 8.995345650494664114e-02 8.666289519309190725e-02 3.699577105894569784e-01
5.810000000000000000e+03 3.416322154412165357e+00 7.742773305463075850e+00 9.019688440089344839e-02 8.689061645955162283e-02 3.701927233767063896e-01
5.815000000000000000e+03 3.419727292358834880e+00 7.739563494638451502e+00 9.044077112050309675e-02 8.711873411880809159e-02 3.704276797042612146e-01
5.820000000000000000e+03 3.423132970265801767e+00 7.736361270053500050e+00 9.068511715850355315e-02 8.734724846651514829e-02 3.706625798722618659e-01
5.825000000000000000e+03 3.426539185834395873e+00 7.733166604940104882e+00 9.092992300977209563e-02 8.757615979799943107e-02 3.708974241795413018e-01
5.830000000000000000e+03 3.429945936768712844e+00 7.729979472647004357e+00 9.117518916933539663e-02 8.780546840825985411e-02 3.711322129236283573e-01
5.835000000000000000e+03 3.433353220775616332e+00 7.726799846639156755e+00 9.142091613236963399e-02 8.803517459196683048e-02 3.713669464007514076e-01
5.840000000000000000e+03 3.436761035564727784e+00 7.723627700497146087e+00 9.166710439420069911e-02 8.826527864346181418e-02 3.716016249058415877e-01
5.845000000000000000e+03 3.440169378848415782e+00 7.720463007916555931e+00 9.191375445030292024e-02 8.849578085675542660e-02 3.718362487325366228e-01
5.850000000000000000e+03 3.443578248341792047e+00 7.717305742707374350e+00 9.216086679629936773e-02 8.872668152552692922e-02 3.720708181731840480e-01
5.855000000000000000e+03 3.446987641762724319e+00 7.714155878793373944e+00 9.240844192796303369e-02 8.895798094312469539e-02 3.723053335188448165e-01
5.860000000000000000e+03 3.450397556831819035e+00 7.711013390211504337e+00 9.265648034121609644e-02 8.918967940256476712e-02 3.725397950592966856e-01
5.865000000000000000e+03 3.453807991272409339e+00 7.707878251111326406e+00 9.290498253212867152e-02 8.942177719652884271e-02 3.727742030830379361e-01
5.870000000000000000e+03 3.457218942810570628e+00 7.704750435754378124e+00 9.315394899692115704e-02 8.965427461736596992e-02 3.730085578772904253e-01
5.875000000000000000e+03 3.460630409175101008e+00 7.701629918513614115e+00 9.340338023196216588e-02 8.988717195708965935e-02 3.732428597280033622e-01
5.880000000000000000e+03 3.464042388097514191e+00 7.698516673872812355e+00 9.365327673376841466e-02 9.012046950737723217e-02 3.734771089198565819e-01
5.885000000000000000e+03 3.467454877312058148e+00 7.695410676425977314e+00 9.390363899900723565e-02 9.035416755957133284e-02 3.737113057362641544e-01
5.890000000000000000e+03 3.470867874555680910e+00 7.692311900876778630e+00 9.415446752449291301e-02 9.058826640467580738e-02 3.739454504593778261e-01
5.895000000000000000e+03 3.474281377568042117e+00 7.689220322037972899e+00 9.440576280718908364e-02 9.082276633335729932e-02 3.741795433700901286e-01
5.900000000000000000e+03 3.477695384091518349e+00 7.686135914830818372e+00 9.465752534420875108e-02 9.105766763594436153e-02 3.744135847480382084e-01
5.905000000000000000e+03 3.481109891871174256e+00 7.683058654284522504e+00 9.490975563281195404e-02 9.129297060242475004e-02 3.746475748716069365e-01
5.910000000000000000e+03 3.484524898654781655e+00 7.679988515535657534e+00 9.516245417040915255e-02 9.152867552244770000e-02 3.748815140179326821e-01
5.915000000000000000e+03 3.487940402192803990e+00 7.676925473827626689e+00 9.541562145455792510e-02 9.176478268532026195e-02 3.751154024629064221e-01
5.920000000000000000e+03 3.491356400238378122e+00 7.673869504510092199e+00 9.566925798296420369e-02 9.200129238000757936e-02 3.753492404811771266e-01
5.925000000000000000e+03 3.494772890547362287e+00 7.670820583038390872e+00 9.592336425348418905e-02 9.223820489513404053e-02 3.755830283461554786e-01
5.930000000000000000e+03 3.498189870878249952e+00 7.667778684973055370e+00 9.617794076411935456e-02 9.247552051897786618e-02 3.758167663300168160e-01
5.935000000000000000e+03 3.501607338992251961e+00 7.664743785979186264e+00 9.643298801302267742e-02 9.271323953947624430e-02 3.760504547037050727e-01
5.940000000000000000e+03 3.505025292653222380e+00 7.661715861825962648e+00 9.668850649849297652e-02 9.295136224421921001e-02 3.762840937369354433e-01
5.945000000000000000e+03 3.508443729627710450e+00 7.658694888386068378e+00 9.694449671897913123e-02 9.318988892045296235e-02 3.765176836981986019e-01
5.950000000000000000e+03 3.511862647684894867e+00 7.655680841635196465e+00 9.720095917307589040e-02 9.342881985507518749e-02 3.767512248547632558e-01
5.955000000000000000e+03 3.515282044596658384e+00 7.652673697651447782e+00 9.745789435952929847e-02 9.366815533463936083e-02 3.769847174726800865e-01
5.960000000000000000e+03 3.518701918137501217e+00 7.649673432614869206e+00 9.771530277723007585e-02 9.390789564534789136e-02 3.772181618167848582e-01
5.965000000000000000e+03 3.522122266084599218e+00 7.646680022806888744e+00 9.797318492521915612e-02 9.414804107305660419e-02 3.774515581507018602e-01
5.970000000000000000e+03 3.525543086217775457e+00 7.643693444609787946e+00 9.823154130268517414e-02 9.438859190327149318e-02 3.776849067368470703e-01
5.975000000000000000e+03 3.528964376319485119e+00 7.640713674506200093e+00 9.849037240896393874e-02 9.462954842114773557e-02 3.779182078364318742e-01
5.980000000000000000e+03 3.532386134174837267e+00 7.637740689078579948e+00 9.874967874353954289e-02 9.487091091148980304e-02 3.781514617094657860e-01
