#[MATERIAL DEFINITION FOR MC-GPU: interaction mean free path and sampling data from PENELOPE 2006]
#[MATERIAL NAME]
# red_marrow(0.105:H_0.414:C_0.034:N_0.439:O_0.001:P_0.002:S_0.002:Cl_0.002:K_0.001:Fe)
#[NOMINAL DENSITY (g/cm^3)]
# 1.03
#[NUMBER OF DATA VALUES]
# 24001
#[MEAN FREE PATHS (cm)]
#[Energy (eV)     | Rayleigh        | Compton         | Photoelectric   | TOTAL (+pair prod) (cm) | Rayleigh: max cumul prob F^2]
5.000000000000000000e+03 2.123813070083617749e+00 8.377717571356516402e+00 2.994136627231345354e-02 2.942143485317878782e-02 3.391309227051128583e-01
5.005000000000000000e+03 2.126224308070662872e+00 8.372424401132283478e+00 3.003183453364217589e-02 2.950918310695978264e-02 3.393856296035566711e-01
5.010000000000000000e+03 2.128636769915675853e+00 8.367146251390170875e+00 3.012249099561900220e-02 2.959710791445264652e-02 3.396400935724632753e-01
5.015000000000000000e+03 2.131050454351480106e+00 8.361883061885535540e+00 3.021333587249831754e-02 2.968520945077172263e-02 3.398943152456454508e-01
5.020000000000000000e+03 2.133465360113300235e+00 8.356634772681980294e+00 3.030436937857246618e-02 2.977348789097276557e-02 3.401482952559268247e-01
5.025000000000000000e+03 2.135881485938755375e+00 8.351401324149453131e+00 3.039559172817115143e-02 2.986194341005195957e-02 3.404020342351375961e-01
5.030000000000000000e+03 2.138298830567874287e+00 8.346182656962286117e+00 3.048700313566255621e-02 2.995057618294711885e-02 3.406555328141107619e-01
5.035000000000000000e+03 2.140717392743067826e+00 8.340978712097339098e+00 3.057860381545213224e-02 3.003938638453614723e-02 3.409087916226783421e-01
5.040000000000000000e+03 2.143137171209141378e+00 8.335789430832072355e+00 3.067039398198355762e-02 3.012837418963791938e-02 3.411618112896678268e-01
5.045000000000000000e+03 2.145558164713268656e+00 8.330614754742729389e+00 3.076237384973767169e-02 3.021753977301110464e-02 3.414145924428982903e-01
5.050000000000000000e+03 2.147980372005002803e+00 8.325454625702436218e+00 3.085454363323312729e-02 3.030688330935456601e-02 3.416671357091765060e-01
5.055000000000000000e+03 2.150403791836270617e+00 8.320308985879359298e+00 3.094690354702644280e-02 3.039640497330732202e-02 3.419194417142937814e-01
5.060000000000000000e+03 2.152828422961346799e+00 8.315177777734909625e+00 3.103945380571115562e-02 3.048610493944758915e-02 3.421715110830224060e-01
5.065000000000000000e+03 2.155254264136878373e+00 8.310060944021881113e+00 3.113219462391883866e-02 3.057598338229351731e-02 3.424233444391117653e-01
5.070000000000000000e+03 2.157681314121846494e+00 8.304958427782695551e+00 3.122512621631804569e-02 3.066604047630209703e-02 3.426749424052853432e-01
5.075000000000000000e+03 2.160109571677581108e+00 8.299870172347556974e+00 3.131824879761497399e-02 3.075627639586963127e-02 3.429263056032370582e-01
5.080000000000000000e+03 2.162539035567752066e+00 8.294796121332719707e+00 3.141156258255319716e-02 3.084669131533131214e-02 3.431774346536279885e-01
5.085000000000000000e+03 2.164969704558352248e+00 8.289736218638694254e+00 3.150506778591350560e-02 3.093728540896090520e-02 3.434283301760831519e-01
5.090000000000000000e+03 2.167401577417699343e+00 8.284690408448522447e+00 3.159876462251390294e-02 3.102805885097058639e-02 3.436789927891882312e-01
5.095000000000000000e+03 2.169834652916420747e+00 8.279658635226022412e+00 3.169265330720952289e-02 3.111901181551073037e-02 3.439294231104863542e-01
5.100000000000000000e+03 2.172268929827464223e+00 8.274640843714047733e+00 3.178673405489298304e-02 3.121014447667011180e-02 3.441796217564750404e-01
5.105000000000000000e+03 2.174704406926067701e+00 8.269636978932803473e+00 3.188100708049375343e-02 3.130145700847504486e-02 3.444295893426029820e-01
5.110000000000000000e+03 2.177141082989764165e+00 8.264646986178128429e+00 3.197547259897828842e-02 3.139294958488949433e-02 3.446793264832671011e-01
5.115000000000000000e+03 2.179578956798384759e+00 8.259670811019791614e+00 3.207013082535055404e-02 3.148462237981530798e-02 3.449288337918095526e-01
5.120000000000000000e+03 2.182018027134024596e+00 8.254708399299852672e+00 3.216498197465102182e-02 3.157647556709117231e-02 3.451781118805147819e-01
5.125000000000000000e+03 2.184458292781056521e+00 8.249759697130961911e+00 3.226002626195719619e-02 3.166850932049290052e-02 3.454271613606063607e-01
5.130000000000000000e+03 2.186899752526111573e+00 8.244824650894738483e+00 3.235526390238335770e-02 3.176072381373309245e-02 3.456759828422446557e-01
5.135000000000000000e+03 2.189342405158091420e+00 8.239903207240073968e+00 3.245069511108109039e-02 3.185311922046145383e-02 3.459245769345235533e-01
5.140000000000000000e+03 2.191786249468130610e+00 8.234995313081574508e+00 3.254632010323835201e-02 3.194569571426369298e-02 3.461729442454679062e-01
5.145000000000000000e+03 2.194231284249600566e+00 8.230100915597910571e+00 3.264213909407970293e-02 3.203845346866170118e-02 3.464210853820305913e-01
5.150000000000000000e+03 2.196677508298126025e+00 8.225219962230172044e+00 3.273815229886711808e-02 3.213139265711408704e-02 3.466690009500904002e-01
5.155000000000000000e+03 2.199124920411529516e+00 8.220352400680353000e+00 3.283435993289832849e-02 3.222451345301446946e-02 3.469166915544487084e-01
5.160000000000000000e+03 2.201573519389863787e+00 8.215498178909710347e+00 3.293076221150831318e-02 3.231781602969269196e-02 3.471641577988271998e-01
5.165000000000000000e+03 2.204023304035384268e+00 8.210657245137198856e+00 3.302735935006839013e-02 3.241130056041387902e-02 3.474114002858654793e-01
5.170000000000000000e+03 2.206474273152544185e+00 8.205829547837931059e+00 3.312415156398643146e-02 3.250496721837843606e-02 3.476584196171184638e-01
5.175000000000000000e+03 2.208926425547990569e+00 8.201015035741610504e+00 3.322113906870682171e-02 3.259881617672184123e-02 3.479052163930536623e-01
5.180000000000000000e+03 2.211379760030539821e+00 8.196213657831011190e+00 3.331832207971015952e-02 3.269284760851424304e-02 3.481517912130492332e-01
5.185000000000000000e+03 2.213834275411189267e+00 8.191425363340428589e+00 3.341570081251355601e-02 3.278706168676055743e-02 3.483981446753913191e-01
5.190000000000000000e+03 2.216289970503103390e+00 8.186650101754160858e+00 3.351327548267080819e-02 3.288145858440050251e-02 3.486442773772716053e-01
5.195000000000000000e+03 2.218746844121591177e+00 8.181887822805036237e+00 3.361104630577146923e-02 3.297603847430748136e-02 3.488901899147854313e-01
5.200000000000000000e+03 2.221204895084109232e+00 8.177138476472890716e+00 3.370901349744154923e-02 3.307080152928919964e-02 3.491358828829292937e-01
5.205000000000000000e+03 2.223664122210248895e+00 8.172402012983086550e+00 3.380717727334330014e-02 3.316574792208722144e-02 3.493813568755985144e-01
5.210000000000000000e+03 2.226124524321738019e+00 8.167678382805029003e+00 3.390553784917516716e-02 3.326087782537685139e-02 3.496266124855855195e-01
5.215000000000000000e+03 2.228586100242407664e+00 8.162967536650743483e+00 3.400409544067152512e-02 3.335619141176655866e-02 3.498716503045771753e-01
5.220000000000000000e+03 2.231048848798200979e+00 8.158269425473365644e+00 3.410285026360299759e-02 3.345168885379831009e-02 3.501164709231532335e-01
5.225000000000000000e+03 2.233512768817163430e+00 8.153584000465743387e+00 3.420180253377604063e-02 3.354737032394693175e-02 3.503610749307838335e-01
5.230000000000000000e+03 2.235977859129426815e+00 8.148911213058974923e+00 3.430095246703335210e-02 3.364323599462031023e-02 3.506054629158278368e-01
5.235000000000000000e+03 2.238444118567199492e+00 8.144251014921005449e+00 3.440030027925330969e-02 3.373928603815874727e-02 3.508496354655307736e-01
5.240000000000000000e+03 2.240911545964762386e+00 8.139603357955214946e+00 3.449984618635023453e-02 3.383552062683503614e-02 3.510935931660227327e-01
5.245000000000000000e+03 2.243380140158456992e+00 8.134968194298972222e+00 3.459959040427460636e-02 3.393193993285452403e-02 3.513373366023167521e-01
5.250000000000000000e+03 2.245849899986664067e+00 8.130345476322323961e+00 3.469953314901206426e-02 3.402854412835393250e-02 3.515808663583069871e-01
5.255000000000000000e+03 2.248320824289823161e+00 8.125735156626522127e+00 3.479967463658478755e-02 3.412533338540266192e-02 3.518241830167666007e-01
5.260000000000000000e+03 2.250792911910376670e+00 8.121137188042730770e+00 3.490001508304987204e-02 3.422230787600089030e-02 3.520672871593462094e-01
5.265000000000000000e+03 2.253266161692806691e+00 8.116551523630604947e+00 3.500055470450050277e-02 3.431946777208068344e-02 3.523101793665722736e-01
5.270000000000000000e+03 2.255740572483595940e+00 8.111978116676944239e+00 3.510129371706547513e-02 3.441681324550531496e-02 3.525528602178450988e-01
5.275000000000000000e+03 2.258216143131231313e+00 8.107416920694376472e+00 3.520223233690921577e-02 3.451434446806914830e-02 3.527953302914373923e-01
5.280000000000000000e+03 2.260692872486179006e+00 8.102867889419998804e+00 3.530337078023144948e-02 3.461206161149708860e-02 3.530375901644927095e-01
5.285000000000000000e+03 2.263170759400893406e+00 8.098330976814054338e+00 3.540470926326767798e-02 3.470996484744507532e-02 3.532796404130236212e-01
5.290000000000000000e+03 2.265649802729782003e+00 8.093806137058631833e+00 3.550624800228838890e-02 3.480805434749886795e-02 3.535214816119104375e-01
5.295000000000000000e+03 2.268130001329224488e+00 8.089293324556319220e+00 3.560798721360012437e-02 3.490633028317519787e-02 3.537631143348994311e-01
5.300000000000000000e+03 2.270611354057530562e+00 8.084792493928960155e+00 3.570992711354403770e-02 3.500479282592001973e-02 3.540045391546016162e-01
5.305000000000000000e+03 2.273093859774963477e+00 8.080303600016302212e+00 3.581206791849742693e-02 3.510344214710995475e-02 3.542457566424912496e-01
5.310000000000000000e+03 2.275577517343686740e+00 8.075826597874785406e+00 3.591440984487179883e-02 3.520227841805018826e-02 3.544867673689042764e-01
5.315000000000000000e+03 2.278062325627805418e+00 8.071361442776183281e+00 3.601695310911515874e-02 3.530130180997655132e-02 3.547275719030370533e-01
5.320000000000000000e+03 2.280548283493294193e+00 8.066908090206448279e+00 3.611969792770935300e-02 3.540051249405280764e-02 3.549681708129451274e-01
5.325000000000000000e+03 2.283035389808054649e+00 8.062466495864338611e+00 3.622264451717262940e-02 3.549991064137290875e-02 3.552085646655417372e-01
5.330000000000000000e+03 2.285523643441836672e+00 8.058036615660283175e+00 3.632579309405721546e-02 3.559949642295858613e-02 3.554487540265969248e-01
5.335000000000000000e+03 2.288013043266276636e+00 8.053618405715058159e+00 3.642914387495115730e-02 3.569927000976086395e-02 3.556887394607356478e-01
5.340000000000000000e+03 2.290503588154872538e+00 8.049211822358603996e+00 3.653269707647732040e-02 3.579923157265901823e-02 3.559285215314371142e-01
5.345000000000000000e+03 2.292995276982947583e+00 8.044816822128810330e+00 3.663645291529310510e-02 3.589938128246009802e-02 3.561681008010335603e-01
5.350000000000000000e+03 2.295488108627689261e+00 8.040433361770260134e+00 3.674041160809167483e-02 3.599971930989995239e-02 3.564074778307089741e-01
5.355000000000000000e+03 2.297982081968075185e+00 8.036061398233089292e+00 3.684457337159994378e-02 3.610024582564114876e-02 3.566466531804979856e-01
5.360000000000000000e+03 2.300477195884928161e+00 8.031700888671714722e+00 3.694893842258082511e-02 3.620096100027495739e-02 3.568856274092850334e-01
5.365000000000000000e+03 2.302973449260845573e+00 8.027351790443738366e+00 3.705350697783107300e-02 3.630186500431912405e-02 3.571244010748028663e-01
5.370000000000000000e+03 2.305470840980235359e+00 8.023014061108664663e+00 3.715827925418296873e-02 3.640295800821931327e-02 3.573629747336322104e-01
5.375000000000000000e+03 2.307969369929263159e+00 8.018687658426832954e+00 3.726325546850273868e-02 3.650424018234746382e-02 3.576013489412000479e-01
5.380000000000000000e+03 2.310469034995867865e+00 8.014372540358190022e+00 3.736843583769170613e-02 3.660571169700269772e-02 3.578395242517792285e-01
5.385000000000000000e+03 2.312969835069746516e+00 8.010068665061142568e+00 3.747382057868569455e-02 3.670737272241059862e-02 3.580775012184874151e-01
5.390000000000000000e+03 2.315471769042340533e+00 8.005775990891416782e+00 3.757940990845536761e-02 3.680922342872336439e-02 3.583152803932861952e-01
5.395000000000000000e+03 2.317974835806805967e+00 8.001494476400942801e+00 3.768520404400543117e-02 3.691126398601892594e-02 3.585528623269800264e-01
5.400000000000000000e+03 2.320479034258037032e+00 7.997224080336672536e+00 3.779120320237561864e-02 3.701349456430163415e-02 3.587902475692157367e-01
5.405000000000000000e+03 2.322984363292613263e+00 7.992964761639522742e+00 3.789740760063940034e-02 3.711591533350096922e-02 3.590274366684815810e-01
5.410000000000000000e+03 2.325490821808824826e+00 7.988716479443185747e+00 3.800381745590532268e-02 3.721852646347260929e-02 3.592644301721064082e-01
5.415000000000000000e+03 2.327998408706640099e+00 7.984479193073074299e+00 3.811043298531598122e-02 3.732132812399725774e-02 3.595012286262592172e-01
5.420000000000000000e+03 2.330507122887688354e+00 7.980252862045198903e+00 3.821725440604824969e-02 3.742432048478075424e-02 3.597378325759481021e-01
5.425000000000000000e+03 2.333016963255267306e+00 7.976037446065079806e+00 3.832428193531338401e-02 3.752750371545400532e-02 3.599742425650197530e-01
5.430000000000000000e+03 2.335527928714318247e+00 7.971832905026656313e+00 3.843151579035693904e-02 3.763087798557268604e-02 3.602104591361588448e-01
5.435000000000000000e+03 2.338040018171406942e+00 7.967639199011218309e+00 3.853895618845830373e-02 3.773444346461662935e-02 3.604464828308874269e-01
5.440000000000000000e+03 2.340553230534735185e+00 7.963456288286304918e+00 3.864660334693163085e-02 3.783820032199072120e-02 3.606823141895641460e-01
5.445000000000000000e+03 2.343067564714093276e+00 7.959284133304704412e+00 3.875445748312428274e-02 3.794214872702302010e-02 3.609179537513839686e-01
5.450000000000000000e+03 2.345583019620883558e+00 7.955122694703308461e+00 3.886251881441850353e-02 3.804628884896629065e-02 3.611534020543774592e-01
5.455000000000000000e+03 2.348099594168087112e+00 7.950971933302136030e+00 3.897078755823026736e-02 3.815062085699681693e-02 3.613886596354103919e-01
5.460000000000000000e+03 2.350617287270249101e+00 7.946831810103257787e+00 3.907926393200926440e-02 3.825514492021406948e-02 3.616237270301831397e-01
5.465000000000000000e+03 2.353136097843484542e+00 7.942702286289760494e+00 3.918794815323956710e-02 3.835986120764130203e-02 3.618586047732302302e-01
5.470000000000000000e+03 2.355656024805443671e+00 7.938583323224731814e+00 3.929684043943874883e-02 3.846476988822451065e-02 3.620932933979202906e-01
5.475000000000000000e+03 2.358177067075313715e+00 7.934474882450222033e+00 3.940594100815842521e-02 3.856987113083273910e-02 3.623277934364550479e-01
5.480000000000000000e+03 2.360699223573808680e+00 7.930376925686224432e+00 3.951525007698418468e-02 3.867516510425793308e-02 3.625621054198694404e-01
5.485000000000000000e+03 2.363222493223136045e+00 7.926289414829707169e+00 3.962476786353490155e-02 3.878065197721406593e-02 3.627962298780310624e-01
5.490000000000000000e+03 2.365746874947002532e+00 7.922212311953566122e+00 3.973449458546334662e-02 3.888633191833749947e-02 3.630301673396398310e-01
5.495000000000000000e+03 2.368272367670610112e+00 7.918145579305625681e+00 3.984443046045663822e-02 3.899220509618742808e-02 3.632639183322278753e-01
5.500000000000000000e+03 2.370798970320606269e+00 7.914089179307717714e+00 3.995457570623422994e-02 3.909827167924357499e-02 3.634974833821592033e-01
5.505000000000000000e+03 2.373326681825115525e+00 7.910043074554605091e+00 4.006493054055040859e-02 3.920453183590862783e-02 3.637308630146290911e-01
5.510000000000000000e+03 2.375855501113691037e+00 7.906007227813083738e+00 4.017549518119225421e-02 3.931098573450589329e-02 3.639640577536645272e-01
5.515000000000000000e+03 2.378385427117326145e+00 7.901981602020970108e+00 4.028626984598083355e-02 3.941763354328050445e-02 3.641970681221234907e-01
5.520000000000000000e+03 2.380916458768421062e+00 7.897966160286165049e+00 4.039725475277021471e-02 3.952447543039812328e-02 3.644298946416951179e-01
5.525000000000000000e+03 2.383448595000786874e+00 7.893960865885674139e+00 4.050845011944816804e-02 3.963151156394560670e-02 3.646625378328993139e-01
5.530000000000000000e+03 2.385981834749621555e+00 7.889965682264670654e+00 4.061985616393580523e-02 3.973874211193031275e-02 3.648949982150867521e-01
5.535000000000000000e+03 2.388516176951505532e+00 7.885980573035555885e+00 4.073147310418771122e-02 3.984616724228026707e-02 3.651272763064388194e-01
5.540000000000000000e+03 2.391051620544380363e+00 7.882005501977012329e+00 4.084330115819156948e-02 3.995378712284346906e-02 3.653593726239673378e-01
5.545000000000000000e+03 2.393588164467535861e+00 7.878040433033074663e+00 4.095534054396843954e-02 4.006160192138807918e-02 3.655912876835148984e-01
5.550000000000000000e+03 2.396125807661603435e+00 7.874085330312223796e+00 4.106759147957237538e-02 4.016961180560187777e-02 3.658230219997544719e-01
5.555000000000000000e+03 2.398664549068544538e+00 7.870140158086416982e+00 4.118005418309126503e-02 4.027781694309290339e-02 3.660545760861895759e-01
5.560000000000000000e+03 2.401204387631615145e+00 7.866204880790253817e+00 4.129272887264508890e-02 4.038621750138755157e-02 3.662859504551541634e-01
5.565000000000000000e+03 2.403745322295390174e+00 7.862279463019987702e+00 4.140561576638791819e-02 4.049481364793242055e-02 3.665171456178131226e-01
5.570000000000000000e+03 2.406287352005716418e+00 7.858363869532687396e+00 4.151871508250638138e-02 4.060360555009265987e-02 3.667481620841615553e-01
5.575000000000000000e+03 2.408830475709712537e+00 7.854458065245300880e+00 4.163202703922021242e-02 4.071259337515224092e-02 3.669790003630255537e-01
5.580000000000000000e+03 2.411374692355754856e+00 7.850562015233808921e+00 4.174555185478184827e-02 4.082177729031351981e-02 3.672096609620620344e-01
5.585000000000000000e+03 2.413920000893472029e+00 7.846675684732280942e+00 4.185928974747729625e-02 4.093115746269781335e-02 3.674401443877588491e-01
5.590000000000000000e+03 2.416466400273718396e+00 7.842799039132054340e+00 4.197324093562498221e-02 4.104073405934419161e-02 3.676704511454350621e-01
5.595000000000000000e+03 2.419013889448557997e+00 7.838932043980848974e+00 4.208740563757606273e-02 4.115050724720956121e-02 3.679005817392410060e-01
5.600000000000000000e+03 2.421562467371273897e+00 7.835074664981871884e+00 4.220178407171502194e-02 4.126047719316911638e-02 3.681305366721585592e-01
5.605000000000000000e+03 2.424112132996324220e+00 7.831226867993001939e+00 4.231637645645840856e-02 4.137064406401489564e-02 3.683603164460012569e-01
5.610000000000000000e+03 2.426662885279355475e+00 7.827388619025896332e+00 4.243118301025625844e-02 4.148100802645705854e-02 3.685899215614147351e-01
5.615000000000000000e+03 2.429214723177175461e+00 7.823559884245161911e+00 4.254620395159083857e-02 4.159156924712247710e-02 3.688193525178767862e-01
5.620000000000000000e+03 2.431767645647738618e+00 7.819740629967504297e+00 4.266143949897718834e-02 4.170232789255506195e-02 3.690486098136976922e-01
5.625000000000000000e+03 2.434321651650126483e+00 7.815930822660913435e+00 4.277688987096257139e-02 4.181328412921511695e-02 3.692776939460205576e-01
5.630000000000000000e+03 2.436876740144565900e+00 7.812130428943774518e+00 4.289255528612766905e-02 4.192443812348021354e-02 3.695066054108216980e-01
5.635000000000000000e+03 2.439432910092371731e+00 7.808339415584107712e+00 4.300843596308492195e-02 4.203579004164362254e-02 3.697353447029108064e-01
5.640000000000000000e+03 2.441990160455964620e+00 7.804557749498700403e+00 4.312453212047957785e-02 4.214734004991495947e-02 3.699639123159313980e-01
5.645000000000000000e+03 2.444548490198839907e+00 7.800785397752309613e+00 4.324084397698926135e-02 4.225908831441973351e-02 3.701923087423613645e-01
5.650000000000000000e+03 2.447107898285564076e+00 7.797022327556846655e+00 4.335737175132401561e-02 4.237103500119911159e-02 3.704205344735130301e-01
5.655000000000000000e+03 2.449668383681754769e+00 7.793268506270574214e+00 4.347411566222608020e-02 4.248318027620966164e-02 3.706485899995337063e-01
5.660000000000000000e+03 2.452229945354067464e+00 7.789523901397304328e+00 4.359107592847012713e-02 4.259552430532326933e-02 3.708764758094064140e-01
5.665000000000000000e+03 2.454792582270195922e+00 7.785788480585586591e+00 4.370825276886345506e-02 4.270806725432727685e-02 3.711041923909498830e-01
5.670000000000000000e+03 2.457356293398837987e+00 7.782062211627942538e+00 4.382564640224532321e-02 4.282080928892360167e-02 3.713317402308192738e-01
5.675000000000000000e+03 2.459921077709678716e+00 7.778345062460084947e+00 4.394325704748668765e-02 4.293375057472834794e-02 3.715591198145067331e-01
5.680000000000000000e+03 2.462486934173411246e+00 7.774637001160088268e+00 4.406108492349163769e-02 4.304689127727302084e-02 3.717863316263416706e-01
5.685000000000000000e+03 2.465053861761677734e+00 7.770937995947686083e+00 4.417913024919550152e-02 4.316023156200250732e-02 3.720133761494915370e-01
5.690000000000000000e+03 2.467621859447096000e+00 7.767248015183424670e+00 4.429739324356643526e-02 4.327377159427647779e-02 3.722402538659621563e-01
5.695000000000000000e+03 2.470190926203212012e+00 7.763567027367966666e+00 4.441587412560416004e-02 4.338751153936790811e-02 3.724669652565985034e-01
5.700000000000000000e+03 2.472761061004505212e+00 7.759895001141288162e+00 4.453457311434025345e-02 4.350145156246333633e-02 3.726935108010849262e-01
5.705000000000000000e+03 2.475332262826380081e+00 7.756231905281920191e+00 4.465349042883892672e-02 4.361559182866333456e-02 3.729198909779463111e-01
5.710000000000000000e+03 2.477904530645127501e+00 7.752577708706236415e+00 4.477262628819565771e-02 4.372993250298104484e-02 3.731461062645481941e-01
5.715000000000000000e+03 2.480477863437934971e+00 7.748932380467666192e+00 4.489198091153797504e-02 4.384447375034276895e-02 3.733721571370975933e-01
5.720000000000000000e+03 2.483052260182862181e+00 7.745295889755970720e+00 4.501155451802550667e-02 4.395921573558780882e-02 3.735980440706435646e-01
5.725000000000000000e+03 2.485627719858832574e+00 7.741668205896506727e+00 4.513134732684955658e-02 4.407415862346805019e-02 3.738237675390781445e-01
5.730000000000000000e+03 2.488204241445608922e+00 7.738049298349498173e+00 4.525135955723311176e-02 4.418930257864752548e-02 3.740493280151365729e-01
5.735000000000000000e+03 2.490781823923781779e+00 7.734439136709308826e+00 4.537159142843054382e-02 4.430464776570224028e-02 3.742747259703985141e-01
5.740000000000000000e+03 2.493360466274777476e+00 7.730837690703697085e+00 4.549204315972880941e-02 4.442019434912093667e-02 3.744999618752883896e-01
5.745000000000000000e+03 2.495940167480801275e+00 7.727244930193140959e+00 4.561271497044541018e-02 4.453594249330303928e-02 3.747250361990760448e-01
5.750000000000000000e+03 2.498520926524876895e+00 7.723660825170068911e+00 4.573360707993050916e-02 4.465189236256059818e-02 3.749499494098780250e-01
5.755000000000000000e+03 2.501102742390783451e+00 7.720085345758203488e+00 4.585471970756518217e-02 4.476804412111632520e-02 3.751747019746577427e-01
5.760000000000000000e+03 2.503685614063067000e+00 7.716518462211841900e+00 4.597605307276202841e-02 4.488439793310403103e-02 3.753992943592266984e-01
5.765000000000000000e+03 2.506269540527021888e+00 7.712960144915133043e+00 4.609760739496535781e-02 4.500095396256869468e-02 3.756237270282447582e-01
5.770000000000000000e+03 2.508854520768684093e+00 7.709410364381400704e+00 4.621938289365100372e-02 4.511771237346603319e-02 3.758480004452216527e-01
5.775000000000000000e+03 2.511440553774796580e+00 7.705869091252465886e+00 4.634137978832583021e-02 4.523467332966197435e-02 3.760721150725171991e-01
5.780000000000000000e+03 2.514027638532821740e+00 7.702336296297926488e+00 4.646359829852841905e-02 4.535183699493296194e-02 3.762960713713424665e-01
5.785000000000000000e+03 2.516615774030911190e+00 7.698811950414493843e+00 4.658603864382872273e-02 4.546920353296560191e-02 3.765198698017605539e-01
5.790000000000000000e+03 2.519204959257886678e+00 7.695296024625331910e+00 4.670870104382757876e-02 4.558677310735599619e-02 3.767435108226873663e-01
5.795000000000000000e+03 2.521795193203241414e+00 7.691788490079351170e+00 4.683158571815729948e-02 4.570454588161006887e-02 3.769669948918926150e-01
5.800000000000000000e+03 2.524386474857118756e+00 7.688289318050554044e+00 4.695469288648153328e-02 4.582252201914333717e-02 3.771903224660005938e-01
5.805000000000000000e+03 2.526978803210305990e+00 7.684798479937363425e+00 4.707802276849526457e-02 4.594070168328075882e-02 3.774134940004913452e-01
5.810000000000000000e+03 2.529572177254191701e+00 7.681315947261991184e+00 4.720157558392384239e-02 4.605908503725544834e-02 3.776365099497012157e-01
5.815000000000000000e+03 2.532166595980798629e+00 7.677841691669719637e+00 4.732535155252456938e-02 4.617767224421030076e-02 3.778593707668240764e-01
5.820000000000000000e+03 2.534762058382728611e+00 7.674375684928318897e+00 4.744935089408534867e-02 4.629646346719632627e-02 3.780820769039121565e-01
5.825000000000000000e+03 2.537358563453166127e+00 7.670917898927346990e+00 4.757357382842519050e-02 4.641545886917296249e-02 3.783046288118770972e-01
5.830000000000000000e+03 2.539956110185863647e+00 7.667468305677529905e+00 4.769802057539395540e-02 4.653465861300778994e-02 3.785270269404907295e-01
5.835000000000000000e+03 2.542554697575130973e+00 7.664026877310105235e+00 4.782269135487271505e-02 4.665406286147660148e-02 3.787492717383863505e-01
5.840000000000000000e+03 2.545154324615819252e+00 7.660593586076202222e+00 4.794758638677343310e-02 4.677367177726293040e-02 3.789713636530595564e-01
5.845000000000000000e+03 2.547754990303297440e+00 7.657168404346192503e+00 4.807270589103890268e-02 4.689348552295780764e-02 3.791933031308691859e-01
5.850000000000000000e+03 2.550356693633442084e+00 7.653751304609082595e+00 4.819805008764225379e-02 4.701350426105922742e-02 3.794150906170385973e-01
5.855000000000000000e+03 2.552959433602637773e+00 7.650342259471862860e+00 4.832361919658792471e-02 4.713372815397270932e-02 3.796367265556563897e-01
5.860000000000000000e+03 2.555563209207750042e+00 7.646941241658900879e+00 4.844941343791125260e-02 4.725415736401091665e-02 3.798582113896778467e-01
5.865000000000000000e+03 2.558168019446108055e+00 7.643548224011326830e+00 4.857543303167753679e-02 4.737479205339250460e-02 3.800795455609256579e-01
5.870000000000000000e+03 2.560773863315507270e+00 7.640163179486412659e+00 4.870167819798362080e-02 4.749563238424342471e-02 3.803007295100912510e-01
5.875000000000000000e+03 2.563380739814178799e+00 7.636786081156966333e+00 4.882814915695662256e-02 4.761667851859560652e-02 3.805217636767355693e-01
5.880000000000000000e+03 2.565988647940777856e+00 7.633416902210731436e+00 4.895484612875376784e-02 4.773793061838657592e-02 3.807426484992906257e-01
5.885000000000000000e+03 2.568597586694386870e+00 7.630055615949760117e+00 4.908176933356379196e-02 4.785938884546066252e-02 3.809633844150601689e-01
5.890000000000000000e+03 2.571207555074478179e+00 7.626702195789847316e+00 4.920891899160514255e-02 4.798105336156702899e-02 3.811839718602211824e-01
5.895000000000000000e+03 2.573818552080910482e+00 7.623356615259933911e+00 4.933629532312695798e-02 4.810292432836058701e-02 3.814044112698246614e-01
5.900000000000000000e+03 2.576430576713927945e+00 7.620018848001473444e+00 4.946389854840921307e-02 4.822500190740173359e-02 3.816247030777972227e-01
5.905000000000000000e+03 2.579043627974117125e+00 7.616688867767907212e+00 4.959172888776157417e-02 4.834728626015530328e-02 3.818448477169417710e-01
5.910000000000000000e+03 2.581657704862428293e+00 7.613366648424018557e+00 4.971978656152490489e-02 4.846977754799167842e-02 3.820648456189390529e-01
5.915000000000000000e+03 2.584272806380129239e+00 7.610052163945403514e+00 4.984807179006976036e-02 4.859247593218525563e-02 3.822846972143486011e-01
5.920000000000000000e+03 2.586888931528808389e+00 7.606745388417878395e+00 4.997658479379685215e-02 4.871538157391472335e-02 3.825044029326100103e-01
5.925000000000000000e+03 2.589506079310375686e+00 7.603446296036871388e+00 5.010532579313824175e-02 4.883849463426389453e-02 3.827239632020443816e-01
5.930000000000000000e+03 2.592124248727000424e+00 7.600154861106916293e+00 5.023429500855456503e-02 4.896181527421910457e-02 3.829433784498552096e-01
5.935000000000000000e+03 2.594743438781161871e+00 7.596871058041029912e+00 5.036349266053814083e-02 4.908534365467176475e-02 3.831626491021294378e-01
5.940000000000000000e+03 2.597363648475579545e+00 7.593594861360195125e+00 5.049291896961040360e-02 4.920907993641592676e-02 3.833817755838394570e-01
5.945000000000000000e+03 2.599984876813243861e+00 7.590326245692753382e+00 5.062257415632376301e-02 4.933302428014977453e-02 3.836007583188435488e-01
5.950000000000000000e+03 2.602607122797353956e+00 7.587065185773904652e+00 5.075245844125939737e-02 4.945717684647338297e-02 3.838195977298876072e-01
5.955000000000000000e+03 2.605230385431365647e+00 7.583811656445097249e+00 5.088257204503020270e-02 4.958153779589128535e-02 3.840382942386061926e-01
5.960000000000000000e+03 2.607854663718915944e+00 7.580565632653523345e+00 5.101291518827753835e-02 4.970610728880930917e-02 3.842568482655239759e-01
5.965000000000000000e+03 2.610479956663854129e+00 7.577327089451562081e+00 5.114348809167351684e-02 4.983088548553654684e-02 3.844752602300569033e-01
5.970000000000000000e+03 2.613106263270208451e+00 7.574096001996213801e+00 5.127429097592011570e-02 4.995587254628423846e-02 3.846935305505136404e-01
5.975000000000000000e+03 2.615733582542174585e+00 7.570872345548591120e+00 5.140532406174895541e-02 5.008106863116548735e-02 3.849116596440966265e-01
5.980000000000000000e+03 2.618361913484105408e+00 7.567656095473381583e+00 5.153658756992163942e-02 5.020647390019532252e-02 3.851296479269035178e-01
