#[MATERIAL DEFINITION FOR MC-GPU: interaction mean free path and sampling data from PENELOPE 2006]
#[MATERIAL NAME]
# soft_tissue(0.104472:H_0.23219:C_0.02488:N_0.6302:O_0.00113:Na_0.00133:P_0.0019:S_0.00134:Cl_0.00199:K)
#[NOMINAL DENSITY (g/cm^3)]
# 1.0
#[NUMBER OF DATA VALUES]
# 24001
#[MEAN FREE PATHS (cm)]
#[Energy (eV)     | Rayleigh        | Compton         | Photoelectric   | TOTAL (+pair prod) (cm) | Rayleigh: max cumul prob F^2]
5.000000000000000000e+03 1.985735037079337406e+00 8.812322130989992175e+00 2.661633352900520666e-02 2.618624738043829822e-02 3.441348791690447273e-01
5.005000000000000000e+03 1.987992995077852543e+00 8.806502451095161277e+00 2.669663111848346801e-02 2.626430995803063009e-02 3.443918217224452571e-01
5.010000000000000000e+03 1.990252256420379284e+00 8.800699253323831073e+00 2.677709562405238344e-02 2.634252998038393023e-02 3.446484842517429925e-01
5.015000000000000000e+03 1.992512819674542968e+00 8.794912472181694696e+00 2.685772723493542319e-02 2.642090760535522817e-02 3.449048674245726032e-01
5.020000000000000000e+03 1.994774683410277971e+00 8.789142042508327535e+00 2.693852614038424326e-02 2.649944299075355364e-02 3.451609719078196914e-01
5.025000000000000000e+03 1.997037846199821498e+00 8.783387899475116001e+00 2.701949252967803319e-02 2.657813629433922187e-02 3.454167983676145748e-01
5.030000000000000000e+03 1.999302306617714464e+00 8.777649978583138335e+00 2.710062659212466793e-02 2.665698767382483625e-02 3.456723474693261244e-01
5.035000000000000000e+03 2.001568063240776407e+00 8.771928215661175088e+00 2.718192851705945184e-02 2.673599728687390403e-02 3.459276198775561029e-01
5.040000000000000000e+03 2.003835114648109261e+00 8.766222546863605913e+00 2.726339849384611796e-02 2.681516529110168981e-02 3.461826162561334463e-01
5.045000000000000000e+03 2.006103459421066049e+00 8.760532908668466234e+00 2.734503671187574550e-02 2.689449184407413651e-02 3.464373372681082697e-01
5.050000000000000000e+03 2.008373096143257985e+00 8.754859237875377787e+00 2.742684336056736699e-02 2.697397710330824705e-02 3.466917835757462041e-01
5.055000000000000000e+03 2.010644023400541158e+00 8.749201471603560876e+00 2.750881862936807934e-02 2.705362122627204269e-02 3.469459558405227906e-01
5.060000000000000000e+03 2.012916239780994765e+00 8.743559547289910583e+00 2.759096270775223195e-02 2.713342437038371649e-02 3.471998547231180954e-01
5.065000000000000000e+03 2.015189743874931327e+00 8.737933402686955731e+00 2.767327578522222470e-02 2.721338669301229946e-02 3.474534808834109367e-01
5.070000000000000000e+03 2.017464534274858501e+00 8.732322975860984826e+00 2.775575805130773427e-02 2.729350835147673765e-02 3.477068349804736114e-01
5.075000000000000000e+03 2.019740609575492840e+00 8.726728205190052989e+00 2.783840969556619638e-02 2.737378950304623568e-02 3.479599176725662879e-01
5.080000000000000000e+03 2.022017968373743368e+00 8.721149029362084804e+00 2.792123090758254905e-02 2.745423030493993055e-02 3.482127296171320663e-01
5.085000000000000000e+03 2.024296609268692482e+00 8.715585387372977166e+00 2.800422187696913895e-02 2.753483091432666965e-02 3.484652714707913712e-01
5.090000000000000000e+03 2.026576530861592840e+00 8.710037218524689706e+00 2.808738279336567278e-02 2.761559148832478869e-02 3.487175438893369561e-01
5.095000000000000000e+03 2.028857731755854488e+00 8.704504462423386713e+00 2.817071384643912713e-02 2.769651218400196249e-02 3.489695475277285186e-01
5.100000000000000000e+03 2.031140210557043968e+00 8.698987058977532882e+00 2.825421522588409534e-02 2.777759315837542015e-02 3.492212830400880930e-01
5.105000000000000000e+03 2.033423965872859895e+00 8.693484948396077883e+00 2.833788712142216309e-02 2.785883456841115394e-02 3.494727510796944436e-01
5.110000000000000000e+03 2.035708996313129848e+00 8.687998071186616045e+00 2.842172972280207488e-02 2.794023657102400957e-02 3.497239522989786242e-01
5.115000000000000000e+03 2.037995300489811257e+00 8.682526368153515861e+00 2.850574321980013648e-02 2.802179932307798105e-02 3.499748873495186485e-01
5.120000000000000000e+03 2.040282877016959873e+00 8.677069780396175602e+00 2.858992780221937188e-02 2.810352298138518029e-02 3.502255568820349940e-01
5.125000000000000000e+03 2.042571724510734210e+00 8.671628249307177683e+00 2.867428365988994310e-02 2.818540770270619791e-02 3.504759615463854394e-01
5.130000000000000000e+03 2.044861841589379114e+00 8.666201716570522962e+00 2.875881098266890035e-02 2.826745364374973896e-02 3.507261019915609568e-01
5.135000000000000000e+03 2.047153226873235532e+00 8.660790124159818859e+00 2.884350996044070248e-02 2.834966096117296983e-02 3.509759788656802715e-01
5.140000000000000000e+03 2.049445878984699654e+00 8.655393414336582936e+00 2.892838078311629410e-02 2.843202981158047399e-02 3.512255928159859208e-01
5.145000000000000000e+03 2.051739796548226469e+00 8.650011529648464759e+00 2.901342364063342477e-02 2.851456035152453994e-02 3.514749444888390362e-01
5.150000000000000000e+03 2.054034978190344418e+00 8.644644412927460664e+00 2.909863872295722839e-02 2.859725273750548039e-02 3.517240345297156789e-01
5.155000000000000000e+03 2.056331422539598996e+00 8.639292007288288389e+00 2.918402622007882502e-02 2.868010712597027223e-02 3.519728635832015118e-01
5.160000000000000000e+03 2.058629128226584282e+00 8.633954256126598281e+00 2.926958632201661845e-02 2.876312367331356964e-02 3.522214322929880237e-01
5.165000000000000000e+03 2.060928093883916290e+00 8.628631103117301748e+00 2.935531921881546699e-02 2.884630253587687487e-02 3.524697413018679226e-01
5.170000000000000000e+03 2.063228318146222762e+00 8.623322492212883716e+00 2.944122510054689862e-02 2.892964386994857640e-02 3.527177912517310276e-01
5.175000000000000000e+03 2.065529799650140941e+00 8.618028367641731080e+00 2.952730415730900684e-02 2.901314783176373729e-02 3.529655827835598281e-01
5.180000000000000000e+03 2.067832537034295370e+00 8.612748673906478913e+00 2.961355657922624951e-02 2.909681457750378300e-02 3.532131165374253756e-01
5.185000000000000000e+03 2.070136528939307663e+00 8.607483355782328260e+00 2.969998255644965002e-02 2.918064426329656028e-02 3.534603931524833986e-01
5.190000000000000000e+03 2.072441774007778736e+00 8.602232358315427874e+00 2.978658227915697426e-02 2.926463704521639619e-02 3.537074132669698612e-01
5.195000000000000000e+03 2.074748270884271495e+00 8.596995626821264835e+00 2.987335593755186328e-02 2.934879307928310935e-02 3.539541775181971883e-01
5.200000000000000000e+03 2.077056018215311717e+00 8.591773106883010769e+00 2.996030372186450283e-02 2.943311252146257190e-02 3.542006865425503803e-01
5.205000000000000000e+03 2.079365014649375620e+00 8.586564744349949763e+00 3.004742582235138057e-02 2.951759552766632447e-02 3.544469409754826827e-01
5.210000000000000000e+03 2.081675258836890752e+00 8.581370485335854781e+00 3.013472242929525480e-02 2.960224225375145471e-02 3.546929414515123113e-01
5.215000000000000000e+03 2.083986749430207119e+00 8.576190276217447561e+00 3.022219373300484221e-02 2.968705285552012546e-02 3.549386886042182332e-01
5.220000000000000000e+03 2.086299485083603855e+00 8.571024063632785683e+00 3.030983992381524467e-02 2.977202748871987312e-02 3.551841830662364474e-01
5.225000000000000000e+03 2.088613464453279889e+00 8.565871794479729573e+00 3.039766119208741832e-02 2.985716630904304211e-02 3.554294254692564881e-01
5.230000000000000000e+03 2.090928686197339736e+00 8.560733415914373978e+00 3.048565772820861081e-02 2.994246947212695839e-02 3.556744164440175382e-01
5.235000000000000000e+03 2.093245148975786396e+00 8.555608875349538067e+00 3.057382972259184775e-02 3.002793713355342980e-02 3.559191566203050994e-01
5.240000000000000000e+03 2.095562851450516462e+00 8.550498120453211115e+00 3.066217736567611318e-02 3.011356944884870795e-02 3.561636466269470502e-01
5.245000000000000000e+03 2.097881792285308578e+00 8.545401099147040824e+00 3.075070084792658892e-02 3.019936657348362696e-02 3.564078870918104269e-01
5.250000000000000000e+03 2.100201970145811003e+00 8.540317759604860726e+00 3.083940035983372824e-02 3.028532866287261122e-02 3.566518786417979814e-01
5.255000000000000000e+03 2.102523383699549608e+00 8.535248050251130536e+00 3.092827609191449445e-02 3.037145587237474048e-02 3.568956219028445176e-01
5.260000000000000000e+03 2.104846031615887902e+00 8.530191919759529284e+00 3.101732823471088293e-02 3.045774835729212621e-02 3.571391174999138385e-01
5.265000000000000000e+03 2.107169912566054126e+00 8.525149317051416986e+00 3.110655697879094114e-02 3.054420627287088991e-02 3.573823660569953042e-01
5.270000000000000000e+03 2.109495025223113274e+00 8.520120191294408230e+00 3.119596251474843554e-02 3.063082977430060458e-02 3.576253681971003351e-01
5.275000000000000000e+03 2.111821368261965759e+00 8.515104491900890693e+00 3.128554503320273017e-02 3.071761901671412470e-02 3.578681245422596358e-01
5.280000000000000000e+03 2.114148940359330098e+00 8.510102168526611166e+00 3.137530472479852645e-02 3.080457415518721501e-02 3.581106357135196427e-01
5.285000000000000000e+03 2.116477740193749124e+00 8.505113171069220712e+00 3.146524178020641133e-02 3.089169534473885925e-02 3.583529023309396377e-01
5.290000000000000000e+03 2.118807766445562901e+00 8.500137449666873124e+00 3.155535639012187199e-02 3.097898274033034430e-02 3.585949250135884725e-01
5.295000000000000000e+03 2.121139017796926929e+00 8.495174954696766534e+00 3.164564874526652055e-02 3.106643649686617256e-02 3.588367043795417932e-01
5.300000000000000000e+03 2.123471492931773508e+00 8.490225636773807594e+00 3.173611903638660914e-02 3.115405676919256669e-02 3.590782410458787099e-01
5.305000000000000000e+03 2.125805190535836164e+00 8.485289446749142428e+00 3.182676745425452175e-02 3.124184371209877062e-02 3.593195356286791320e-01
5.310000000000000000e+03 2.128140109296605686e+00 8.480366335708847458e+00 3.191759418966690076e-02 3.132979748031516215e-02 3.595605887430207703e-01
5.315000000000000000e+03 2.130476247903364317e+00 8.475456254972472792e+00 3.200859943344679798e-02 3.141791822851511262e-02 3.598014010029763066e-01
5.320000000000000000e+03 2.132813605047131134e+00 8.470559156091772124e+00 3.209978337644128765e-02 3.150620611131264848e-02 3.600419730216105618e-01
5.325000000000000000e+03 2.135152179420703789e+00 8.465674990849237247e+00 3.219114620952365224e-02 3.159466128326438722e-02 3.602823054109775547e-01
5.330000000000000000e+03 2.137491969718602114e+00 8.460803711256867032e+00 3.228268812359130768e-02 3.168328389886741758e-02 3.605223987821182807e-01
5.335000000000000000e+03 2.139832974637100094e+00 8.455945269554730359e+00 3.237440930956738544e-02 3.177207411256070813e-02 3.607622537450573819e-01
5.340000000000000000e+03 2.142175192874203660e+00 8.451099618209694242e+00 3.246630995839987904e-02 3.186103207872414272e-02 3.610018709088009259e-01
5.345000000000000000e+03 2.144518623129622270e+00 8.446266709914107551e+00 3.255839026106130407e-02 3.195015795167809730e-02 3.612412508813337975e-01
5.350000000000000000e+03 2.146863264104807989e+00 8.441446497584438546e+00 3.265065040854987777e-02 3.203945188568443903e-02 3.614803942696170336e-01
5.355000000000000000e+03 2.149209114502891982e+00 8.436638934360063402e+00 3.274309059188768023e-02 3.212891403494458342e-02 3.617193016795851590e-01
5.360000000000000000e+03 2.151556173028735142e+00 8.431843973601850450e+00 3.283571100212258342e-02 3.221854455360132624e-02 3.619579737161441879e-01
5.365000000000000000e+03 2.153904438388867693e+00 8.427061568891019760e+00 3.292851183032648177e-02 3.230834359573690751e-02 3.621964109831686263e-01
5.370000000000000000e+03 2.156253909291523385e+00 8.422291674027738040e+00 3.302149326759657583e-02 3.239831131537417724e-02 3.624346140834995289e-01
5.375000000000000000e+03 2.158604584446601748e+00 8.417534243029949792e+00 3.311465550505416494e-02 3.248844786647533261e-02 3.626725836189420016e-01
5.380000000000000000e+03 2.160956462565676084e+00 8.412789230132071694e+00 3.320799873384550072e-02 3.257875340294253547e-02 3.629103201902626474e-01
5.385000000000000000e+03 2.163309542361988580e+00 8.408056589783750923e+00 3.330152314514134987e-02 3.266922807861744049e-02 3.631478243971877351e-01
5.390000000000000000e+03 2.165663822550441875e+00 8.403336276648618153e+00 3.339522893013725097e-02 3.275987204728126462e-02 3.633850968384008673e-01
5.395000000000000000e+03 2.168019301847573743e+00 8.398628245603088516e+00 3.348911628005278585e-02 3.285068546265400985e-02 3.636221381115403717e-01
5.400000000000000000e+03 2.170375978971581965e+00 8.393932451735093281e+00 3.358318538613247473e-02 3.294166847839516410e-02 3.638589488131976357e-01
5.405000000000000000e+03 2.172733852642283470e+00 8.389248850342919894e+00 3.367743643964460354e-02 3.303282124810241749e-02 3.640955295389148860e-01
5.410000000000000000e+03 2.175092921581136540e+00 8.384577396933943660e+00 3.377186963188241742e-02 3.312414392531277257e-02 3.643318808831829125e-01
5.415000000000000000e+03 2.177453184511215944e+00 8.379918047223473110e+00 3.386648515416318395e-02 3.321563666350142718e-02 3.645680034394394586e-01
5.420000000000000000e+03 2.179814640157209382e+00 8.375270757133543853e+00 3.396128319782843602e-02 3.330729961608193401e-02 3.648038978000666122e-01
5.425000000000000000e+03 2.182177287245415265e+00 8.370635482791737303e+00 3.405626395424396491e-02 3.339913293640607572e-02 3.650395645563893621e-01
5.430000000000000000e+03 2.184541124503735166e+00 8.366012180530004727e+00 3.415142761479985495e-02 3.349113677776371228e-02 3.652750042986734891e-01
5.435000000000000000e+03 2.186906150661655168e+00 8.361400806883514392e+00 3.424677437090995619e-02 3.358331129338217036e-02 3.655102176161237892e-01
5.440000000000000000e+03 2.189272364450264519e+00 8.356801318589464955e+00 3.434230441401276562e-02 3.367565663642705515e-02 3.657452050968819091e-01
5.445000000000000000e+03 2.191639764602212992e+00 8.352213672585984128e+00 3.443801793557004637e-02 3.376817296000063362e-02 3.659799673280249022e-01
5.450000000000000000e+03 2.194008349851740647e+00 8.347637826010910089e+00 3.453391512706824318e-02 3.386086041714322925e-02 3.662145048955633975e-01
5.455000000000000000e+03 2.196378118934649848e+00 8.343073736200727453e+00 3.462999618001751795e-02 3.395371916083203545e-02 3.664488183844397118e-01
5.460000000000000000e+03 2.198749070588295940e+00 8.338521360689414408e+00 3.472626128595169420e-02 3.404674934398102537e-02 3.666829083785260179e-01
5.465000000000000000e+03 2.201121203551600569e+00 8.333980657207305853e+00 3.482271063642885384e-02 3.413995111944134048e-02 3.669167754606232346e-01
5.470000000000000000e+03 2.203494516565023709e+00 8.329451583680002713e+00 3.491934442303055303e-02 3.423332464000046482e-02 3.671504202124588057e-01
5.475000000000000000e+03 2.205869008370568096e+00 8.324934098227261714e+00 3.501616283736225244e-02 3.432687005838248873e-02 3.673838432146854238e-01
5.480000000000000000e+03 2.208244677711777459e+00 8.320428159161881609e+00 3.511316607105332416e-02 3.442058752724795612e-02 3.676170450468793649e-01
5.485000000000000000e+03 2.210621523333712091e+00 8.315933724988646247e+00 3.521035431575637170e-02 3.451447719919310819e-02 3.678500262875389337e-01
5.490000000000000000e+03 2.212999543982953288e+00 8.311450754403219676e+00 3.530772776314776429e-02 3.460853922675032057e-02 3.680827875140830763e-01
5.495000000000000000e+03 2.215378738407616233e+00 8.306979206291034146e+00 3.540528660492808788e-02 3.470277376238831840e-02 3.683153293028497144e-01
5.500000000000000000e+03 2.217759105357298921e+00 8.302519039726321992e+00 3.550303103282029249e-02 3.479718095851030285e-02 3.685476522290947465e-01
5.505000000000000000e+03 2.220140643583122131e+00 8.298070213970936138e+00 3.560096123857192651e-02 3.489176096745605360e-02 3.687797568669900494e-01
5.510000000000000000e+03 2.222523351837689454e+00 8.293632688473383752e+00 3.569907741395333262e-02 3.498651394149990268e-02 3.690116437896227564e-01
5.515000000000000000e+03 2.224907228875105059e+00 8.289206422867724910e+00 3.579737975075863998e-02 3.508144003285172674e-02 3.692433135689933144e-01
5.520000000000000000e+03 2.227292273450943050e+00 8.284791376972570731e+00 3.589586844080500105e-02 3.517653939365595478e-02 3.694747667760147070e-01
5.525000000000000000e+03 2.229678484322266563e+00 8.280387510790017558e+00 3.599454367593303561e-02 3.527181217599199142e-02 3.697060039805108445e-01
5.530000000000000000e+03 2.232065860247602451e+00 8.275994784504639767e+00 3.609340564800665729e-02 3.536725853187380059e-02 3.699370257512154536e-01
5.535000000000000000e+03 2.234454399986949724e+00 8.271613158482463035e+00 3.619245454891313607e-02 3.546287861324991242e-02 3.701678326557710785e-01
5.540000000000000000e+03 2.236844102301760007e+00 8.267242593269944706e+00 3.629169057056269576e-02 3.555867257200289594e-02 3.703984252607274708e-01
5.545000000000000000e+03 2.239234965954941092e+00 8.262883049592982587e+00 3.639111390488884712e-02 3.565464055994956027e-02 3.706288041315409232e-01
5.550000000000000000e+03 2.241626989710841400e+00 8.258534488355911307e+00 3.649072474384797149e-02 3.575078272884037872e-02 3.708589698325727713e-01
5.555000000000000000e+03 2.244020172335265517e+00 8.254196870640473804e+00 3.659052327942012572e-02 3.584709923036021040e-02 3.710889229270886158e-01
5.560000000000000000e+03 2.246414512595429347e+00 8.249870157704911833e+00 3.669050970360736991e-02 3.594359021612651695e-02 3.713186639772570463e-01
5.565000000000000000e+03 2.248810009260001852e+00 8.245554310982893043e+00 3.679068420843571718e-02 3.604025583769106950e-02 3.715481935441488082e-01
5.570000000000000000e+03 2.251206661099059758e+00 8.241249292082606814e+00 3.689104698595357945e-02 3.613709624653842906e-02 3.717775121877357480e-01
5.575000000000000000e+03 2.253604466884101321e+00 8.236955062785762394e+00 3.699159822823235716e-02 3.623411159408631427e-02 3.720066204668898147e-01
5.580000000000000000e+03 2.256003425388029449e+00 8.232671585046650975e+00 3.709233812736605074e-02 3.633130203168512262e-02 3.722355189393823371e-01
5.585000000000000000e+03 2.258403535385168581e+00 8.228398820991149165e+00 3.719326687547202387e-02 3.642866771061850639e-02 3.724642081618826928e-01
5.590000000000000000e+03 2.260804795651231380e+00 8.224136732915820147e+00 3.729438466468996266e-02 3.652620878210229710e-02 3.726926886899578628e-01
5.595000000000000000e+03 2.263207204963318286e+00 8.219885283286943789e+00 3.739569168718215320e-02 3.662392539728458879e-02 3.729209610780714890e-01
5.600000000000000000e+03 2.265610762099933062e+00 8.215644434739576951e+00 3.749718813513397420e-02 3.672181770724614741e-02 3.731490258795829296e-01
5.605000000000000000e+03 2.268015465840949485e+00 8.211414150076643992e+00 3.759887420075281456e-02 3.681988586299917571e-02 3.733768836467467045e-01
5.610000000000000000e+03 2.270421314967624671e+00 8.207194392267988192e+00 3.770075007626937091e-02 3.691813001548843731e-02 3.736045349307114405e-01
5.615000000000000000e+03 2.272828308262589303e+00 8.202985124449465815e+00 3.780281595393639171e-02 3.701655031559002162e-02 3.738319802815195381e-01
5.620000000000000000e+03 2.275236444509834755e+00 8.198786309922031279e+00 3.790507202602926007e-02 3.711514691411162137e-02 3.740592202481059503e-01
5.625000000000000000e+03 2.277645722494703762e+00 8.194597912150859642e+00 3.800751848484545253e-02 3.721391996179203299e-02 3.742862553782980162e-01
5.630000000000000000e+03 2.280056141003916181e+00 8.190419894764369602e+00 3.811015552270560769e-02 3.731286960930189217e-02 3.745130862188146281e-01
5.635000000000000000e+03 2.282467698825522362e+00 8.186252221553418806e+00 3.821298333195202734e-02 3.741199600724231383e-02 3.747397133152653992e-01
5.640000000000000000e+03 2.284880394748923571e+00 8.182094856470355282e+00 3.831600210494964798e-02 3.751129930614548885e-02 3.749661372121504965e-01
5.645000000000000000e+03 2.287294227564857341e+00 8.177947763628155897e+00 3.841921203408565216e-02 3.761077965647432325e-02 3.751923584528597533e-01
5.650000000000000000e+03 2.289709196065390806e+00 8.173810907299552397e+00 3.852261331176935755e-02 3.771043720862211901e-02 3.754183775796721689e-01
5.655000000000000000e+03 2.292125299043922926e+00 8.169684251916152107e+00 3.862620613043221685e-02 3.781027211291251855e-02 3.756441951337555762e-01
5.660000000000000000e+03 2.294542535295168495e+00 8.165567762067569291e+00 3.872999068252790111e-02 3.791028451959941453e-02 3.758698116551660307e-01
5.665000000000000000e+03 2.296960903615171024e+00 8.161461402500568951e+00 3.883396716053245934e-02 3.801047457886694986e-02 3.760952276828471996e-01
5.670000000000000000e+03 2.299380402801277867e+00 8.157365138118207071e+00 3.893813575694379803e-02 3.811084244082892092e-02 3.763204437546303072e-01
5.675000000000000000e+03 2.301801031652130458e+00 8.153278933979006382e+00 3.904249666428134119e-02 3.821138825552836821e-02 3.765454604072334677e-01
5.680000000000000000e+03 2.304222788967693614e+00 8.149202755296061085e+00 3.914705007508737650e-02 3.831211217293863797e-02 3.767702781762610198e-01
5.685000000000000000e+03 2.306645673549207132e+00 8.145136567436260577e+00 3.925179618192539688e-02 3.841301434296174461e-02 3.769948975962039150e-01
5.690000000000000000e+03 2.309069684199219541e+00 8.141080335919392397e+00 3.935673517738134952e-02 3.851409491542937685e-02 3.772193192004386630e-01
5.695000000000000000e+03 2.311494819721548133e+00 8.137034026417367727e+00 3.946186725406263668e-02 3.861535404010187772e-02 3.774435435212274426e-01
5.700000000000000000e+03 2.313921078921293173e+00 8.132997604753377630e+00 3.956719260459836546e-02 3.871679186666832778e-02 3.776675710897176019e-01
5.705000000000000000e+03 2.316348460604843673e+00 8.128971036901059932e+00 3.967271142163997927e-02 3.881840854474698926e-02 3.778914024359415480e-01
5.710000000000000000e+03 2.318776963579839201e+00 8.124954288983715855e+00 3.977842389786007821e-02 3.892020422388405704e-02 3.781150380888163021e-01
5.715000000000000000e+03 2.321206586655192972e+00 8.120947327273489336e+00 3.988433022595304356e-02 3.902217905355421373e-02 3.783384785761436109e-01
5.720000000000000000e+03 2.323637328641078970e+00 8.116950118190555230e+00 3.999043059863518351e-02 3.912433318316048403e-02 3.785617244246092805e-01
5.725000000000000000e+03 2.326069188348925731e+00 8.112962628302337720e+00 4.009672520864424744e-02 3.922666676203379749e-02 3.787847761597834539e-01
5.730000000000000000e+03 2.328502164591410573e+00 8.108984824322719831e+00 4.020321424873948141e-02 3.932917993943278734e-02 3.790076343061202779e-01
5.735000000000000000e+03 2.330936256182443156e+00 8.105016673111247627e+00 4.030989791170135061e-02 3.943187286454347129e-02 3.792302993869577366e-01
5.740000000000000000e+03 2.333371461937196578e+00 8.101058141672343282e+00 4.041677639033254554e-02 3.953474568648007725e-02 3.794527719245177066e-01
5.745000000000000000e+03 2.335807780672053635e+00 8.097109197154559013e+00 4.052384987745626804e-02 3.963779855428321841e-02 3.796750524399054028e-01
5.750000000000000000e+03 2.338245211204650342e+00 8.093169806849751069e+00 4.063111856591797993e-02 3.974103161692151692e-02 3.798971414531102098e-01
5.755000000000000000e+03 2.340683752353830194e+00 8.089239938192367418e+00 4.073858264858396666e-02 3.984444502329006349e-02 3.801190394830046837e-01
5.760000000000000000e+03 2.343123402939661037e+00 8.085319558758662595e+00 4.084624231834176750e-02 3.994803892221063246e-02 3.803407470473452734e-01
5.765000000000000000e+03 2.345564161783426638e+00 8.081408636265937417e+00 4.095409776810038371e-02 4.005181346243193163e-02 3.805622646627717098e-01
5.770000000000000000e+03 2.348006027707627119e+00 8.077507138571782264e+00 4.106214919079015369e-02 4.015576879262909571e-02 3.807835928448077278e-01
5.775000000000000000e+03 2.350448999535955874e+00 8.073615033673352315e+00 4.117039677936218389e-02 4.025990506140328384e-02 3.810047321078603444e-01
5.780000000000000000e+03 2.352893076093318214e+00 8.069732289706603723e+00 4.127884072678910526e-02 4.036422241728203353e-02 3.812256829652206358e-01
5.785000000000000000e+03 2.355338256205813607e+00 8.065858874945549317e+00 4.138748122606460828e-02 4.046872100871888589e-02 3.814464459290632936e-01
5.790000000000000000e+03 2.357784538700726795e+00 8.061994757801558720e+00 4.149631847020306824e-02 4.057340098409276119e-02 3.816670215104470132e-01
5.795000000000000000e+03 2.360231922406532679e+00 8.058139906822594511e+00 4.160535265224013513e-02 4.067826249170846536e-02 3.818874102193146047e-01
5.800000000000000000e+03 2.362680406152887880e+00 8.054294290692505243e+00 4.171458396523252538e-02 4.078330567979628063e-02 3.821076125644930488e-01
5.805000000000000000e+03 2.365129988770638736e+00 8.050457878230284692e+00 4.182401260225798723e-02 4.088853069651191691e-02 3.823276290536937738e-01
5.810000000000000000e+03 2.367580669091775114e+00 8.046630638389407508e+00 4.193363875641448885e-02 4.099393768993551956e-02 3.825474601935126562e-01
5.815000000000000000e+03 2.370032445949488586e+00 8.042812540257051168e+00 4.204346262082166163e-02 4.109952680807293923e-02 3.827671064894305197e-01
5.820000000000000000e+03 2.372485318178110703e+00 8.039003553053440498e+00 4.215348438861939856e-02 4.120529819885430239e-02 3.829865684458130803e-01
5.825000000000000000e+03 2.374939284613141854e+00 8.035203646131115818e+00 4.226370425296859662e-02 4.131125201013451792e-02 3.832058465659113899e-01
5.830000000000000000e+03 2.377394344091231293e+00 8.031412788974257921e+00 4.237412240705067112e-02 4.141738838969272890e-02 3.834249413518620031e-01
5.835000000000000000e+03 2.379850495450188230e+00 8.027630951197977538e+00 4.248473904406798590e-02 4.152370748523257632e-02 3.836438533046873656e-01
5.840000000000000000e+03 2.382307737528962743e+00 8.023858102547620774e+00 4.259555435724352718e-02 4.163020944438181742e-02 3.838625829242959253e-01
5.845000000000000000e+03 2.384766069167646663e+00 8.020094212898108310e+00 4.270656853982084805e-02 4.173689441469202038e-02 3.840811307094826876e-01
5.850000000000000000e+03 2.387225489207458029e+00 8.016339252253251502e+00 4.281778178506366606e-02 4.184376254363817577e-02 3.842994971579293262e-01
5.855000000000000000e+03 2.389685996490762410e+00 8.012593190745050720e+00 4.292919428625658479e-02 4.195081397861920303e-02 3.845176827662047381e-01
5.860000000000000000e+03 2.392147589861049362e+00 8.008855998633038098e+00 4.304080623670497596e-02 4.205804886695763828e-02 3.847356880297654325e-01
5.865000000000000000e+03 2.394610268162921329e+00 8.005127646303630939e+00 4.315261782973382754e-02 4.216546735589855183e-02 3.849535134429556416e-01
5.870000000000000000e+03 2.397074030242118958e+00 8.001408104269421173e+00 4.326462925868942294e-02 4.227306959261087349e-02 3.851711594990080978e-01
5.875000000000000000e+03 2.399538874945483791e+00 7.997697343168555406e+00 4.337684071693799492e-02 4.238085572418612279e-02 3.853886266900441449e-01
5.880000000000000000e+03 2.402004801120966260e+00 7.993995333764078559e+00 4.348925239786573249e-02 4.248882589763810363e-02 3.856059155070745703e-01
5.885000000000000000e+03 2.404471807617637236e+00 7.990302046943246417e+00 4.360186449487987725e-02 4.259698025990403536e-02 3.858230264399994947e-01
5.890000000000000000e+03 2.406939893285656051e+00 7.986617453716915449e+00 4.371467720140725932e-02 4.270531895784279025e-02 3.860399599776094814e-01
5.895000000000000000e+03 2.409409056976282937e+00 7.982941525218893553e+00 4.382769071089509527e-02 4.281384213823571927e-02 3.862567166075856484e-01
5.900000000000000000e+03 2.411879297541879019e+00 7.979274232705271253e+00 4.394090521681100203e-02 4.292254994778651328e-02 3.864732968165001670e-01
5.905000000000000000e+03 2.414350613835883674e+00 7.975615547553826623e+00 4.405432091264220584e-02 4.303144253312014139e-02 3.866897010898171505e-01
5.910000000000000000e+03 2.416823004712833178e+00 7.971965441263359153e+00 4.416793799189665942e-02 4.314052004078399588e-02 3.869059299118928208e-01
5.915000000000000000e+03 2.419296469028334950e+00 7.968323885453087563e+00 4.428175664810186235e-02 4.324978261724652523e-02 3.871219837659761742e-01
5.920000000000000000e+03 2.421771005639075547e+00 7.964690851862025411e+00 4.439577707480511087e-02 4.335923040889735208e-02 3.873378631342095924e-01
5.925000000000000000e+03 2.424246613402825545e+00 7.961066312348311413e+00 4.450999946557467751e-02 4.346886356204834184e-02 3.875535684976295081e-01
5.930000000000000000e+03 2.426723291178401354e+00 7.957450238888685412e+00 4.462442401399733388e-02 4.357868222293093813e-02 3.877691003361669608e-01
5.935000000000000000e+03 2.429201037825709619e+00 7.953842603577780501e+00 4.473905091368096665e-02 4.368868653769876487e-02 3.879844591286481514e-01
5.940000000000000000e+03 2.431679852205696601e+00 7.950243378627580348e+00 4.485388035825246811e-02 4.379887665242528094e-02 3.881996453527951640e-01
5.945000000000000000e+03 2.434159733180384144e+00 7.946652536366770825e+00 4.496891254135931132e-02 4.390925271310520961e-02 3.884146594852266321e-01
5.950000000000000000e+03 2.436640679612822158e+00 7.943070049240186670e+00 4.508414765666750312e-02 4.401981486565256785e-02 3.886295020014582935e-01
5.955000000000000000e+03 2.439122690367138802e+00 7.939495889808152462e+00 4.519958589786429726e-02 4.413056325590294926e-02 3.888441733759039343e-01
5.960000000000000000e+03 2.441605764308480975e+00 7.935930030745943498e+00 4.531522745865532165e-02 4.424149802961072075e-02 3.890586740818757772e-01
5.965000000000000000e+03 2.444089900303050289e+00 7.932372444843167614e+00 4.543107253276653518e-02 4.435261933245081972e-02 3.892730045915852588e-01
5.970000000000000000e+03 2.446575097218083084e+00 7.928823105003171889e+00 4.554712131394337421e-02 4.446392731001775483e-02 3.894871653761441399e-01
5.975000000000000000e+03 2.449061353921844653e+00 7.925281984242485755e+00 4.566337399595077340e-02 4.457542210782543951e-02 3.897011569055647273e-01
5.980000000000000000e+03 2.451548669283631909e+00 7.921749055690217034e+00 4.577983077257314487e-02 4.468710387130720579e-02 3.899149796487608732e-01
