#[MATERIAL DEFINITION FOR MC-GPU: interaction mean free path and sampling data from PENELOPE 2006]
#[MATERIAL NAME]
# stomach_intestines(0.105:H_0.114:C_0.025:N_0.75:O_0.001:Na_0.001:P_0.001:S_0.002:Cl_0.001:K)
#[NOMINAL DENSITY (g/cm^3)]
# 1.04
#[NUMBER OF DATA VALUES]
# 24001
#[MEAN FREE PATHS (cm)]
#[Energy (eV)     | Rayleigh        | Compton         | Photoelectric   | TOTAL (+pair prod) (cm) | Rayleigh: max cumul prob F^2]
5.000000000000000000e+03 1.804602679107716989e+00 8.565668853984014675e+00 2.383185535037014163e-02 2.345681827179891404e-02 3.468659617680374674e-01
5.005000000000000000e+03 1.806657784196397110e+00 8.559857885547570433e+00 2.390380115921940385e-02 2.352681922319945981e-02 3.471237129888089523e-01
5.010000000000000000e+03 1.808714142323078589e+00 8.554063381828401091e+00 2.397589676402713324e-02 2.359696175999690879e-02 3.473811631976482794e-01
5.015000000000000000e+03 1.810771752277710034e+00 8.548285277619228850e+00 2.404814233483323904e-02 2.366724602523206586e-02 3.476383130834549418e-01
5.020000000000000000e+03 1.812830612852442513e+00 8.542523508044828517e+00 2.412053804170111865e-02 2.373767216190460910e-02 3.478951633345089278e-01
5.025000000000000000e+03 1.814890722841630000e+00 8.536778008559966935e+00 2.419308405471715107e-02 2.380824031297245139e-02 3.481517146384631167e-01
5.030000000000000000e+03 1.816952081041820932e+00 8.531048714947312206e+00 2.426578054399167531e-02 2.387895062135255569e-02 3.484079676823360061e-01
5.035000000000000000e+03 1.819014686251743340e+00 8.525335563315440623e+00 2.433862767965789750e-02 2.394980322991982838e-02 3.486639231525052174e-01
5.040000000000000000e+03 1.821078537272301068e+00 8.519638490096754779e+00 2.441162563187272705e-02 2.402079828150781651e-02 3.489195817347000572e-01
5.045000000000000000e+03 1.823143632906545131e+00 8.513957432045542006e+00 2.448477457081586414e-02 2.409193591890769828e-02 3.491749441139949117e-01
5.050000000000000000e+03 1.825209971959677713e+00 8.508292326235929792e+00 2.455807466669032713e-02 2.416321628486872361e-02 3.494300109748019745e-01
5.055000000000000000e+03 1.827277553239046171e+00 8.502643110059899811e+00 2.463152608972246291e-02 2.423463952209813782e-02 3.496847830008649183e-01
5.060000000000000000e+03 1.829346375554109949e+00 8.497009721225374790e+00 2.470512901016134327e-02 2.430620577326042878e-02 3.499392608752521228e-01
5.065000000000000000e+03 1.831416437716459233e+00 8.491392097754200563e+00 2.477888359827941367e-02 2.437791518097789586e-02 3.501934452803496800e-01
5.070000000000000000e+03 1.833487738539772316e+00 8.485790177980266691e+00 2.485279002437176463e-02 2.444976788782985549e-02 3.504473368978553438e-01
5.075000000000000000e+03 1.835560276839833138e+00 8.480203900547538254e+00 2.492684845875660360e-02 2.452176403635301233e-02 3.507009364087715353e-01
5.080000000000000000e+03 1.837634051434507532e+00 8.474633204408162257e+00 2.500105907177502598e-02 2.459390376904106376e-02 3.509542444933992922e-01
5.085000000000000000e+03 1.839709061143732116e+00 8.469078028820590021e+00 2.507542203379086940e-02 2.466618722834454380e-02 3.512072618313317740e-01
5.090000000000000000e+03 1.841785304789505640e+00 8.463538313347664044e+00 2.514993751519073797e-02 2.473861455667064266e-02 3.514599891014479893e-01
5.095000000000000000e+03 1.843862781195876765e+00 8.458013997854786581e+00 2.522460568638384623e-02 2.481118589638311653e-02 3.517124269819064120e-01
5.100000000000000000e+03 1.845941489188946072e+00 8.452505022508008281e+00 2.529942671780240765e-02 2.488390138980237087e-02 3.519645761501390968e-01
5.105000000000000000e+03 1.848021427596836075e+00 8.447011327772260714e+00 2.537440077990100670e-02 2.495676117920487061e-02 3.522164372828454071e-01
5.110000000000000000e+03 1.850102595249692561e+00 8.441532854409468101e+00 2.544952804315673764e-02 2.502976540682317827e-02 3.524680110559859081e-01
5.115000000000000000e+03 1.852184990979682588e+00 8.436069543476742538e+00 2.552480867806961734e-02 2.510291421484615523e-02 3.527192981447766496e-01
5.120000000000000000e+03 1.854268613620966066e+00 8.430621336324620074e+00 2.560024285516176307e-02 2.517620774541820886e-02 3.529702992236831705e-01
5.125000000000000000e+03 1.856353462009694866e+00 8.425188174595227508e+00 2.567583074497778103e-02 2.524964614063944165e-02 3.532210149664145038e-01
5.130000000000000000e+03 1.858439534984001051e+00 8.419770000220543338e+00 2.575157251808461376e-02 2.532322954256542580e-02 3.534714460459175145e-01
5.135000000000000000e+03 1.860526831384001767e+00 8.414366755420584099e+00 2.582746834507188699e-02 2.539695809320750494e-02 3.537215931343713482e-01
5.140000000000000000e+03 1.862615350051765040e+00 8.408978382701715049e+00 2.590351839655112218e-02 2.547083193453186442e-02 3.539714569031814917e-01
5.145000000000000000e+03 1.864705089831308227e+00 8.403604824854886246e+00 2.597972284315605215e-02 2.554485120845976370e-02 3.542210380229743882e-01
5.150000000000000000e+03 1.866796049568609339e+00 8.398246024953861522e+00 2.605608185554309647e-02 2.561901605686785904e-02 3.544703371635919420e-01
5.155000000000000000e+03 1.868888228111560412e+00 8.392901926353603770e+00 2.613259560439009158e-02 2.569332662158694755e-02 3.547193549940859669e-01
5.160000000000000000e+03 1.870981624309989488e+00 8.387572472688482605e+00 2.620926426039752247e-02 2.576778304440297679e-02 3.549680921827126912e-01
5.165000000000000000e+03 1.873076237015636192e+00 8.382257607870631233e+00 2.628608799428767268e-02 2.584238546705616701e-02 3.552165493969276500e-01
5.170000000000000000e+03 1.875172065082146622e+00 8.376957276088258908e+00 2.636306697680490529e-02 2.591713403124114995e-02 3.554647273033803567e-01
5.175000000000000000e+03 1.877269107365063139e+00 8.371671421803982938e+00 2.644020137871548951e-02 2.599202887860673633e-02 3.557126265679088073e-01
5.180000000000000000e+03 1.879367362721810819e+00 8.366399989753196209e+00 2.651749137080748955e-02 2.606707015075569733e-02 3.559602478555348726e-01
5.185000000000000000e+03 1.881466830011696345e+00 8.361142924942402743e+00 2.659493712389086884e-02 2.614225798924470559e-02 3.562075918304585809e-01
5.190000000000000000e+03 1.883567508095898901e+00 8.355900172647571011e+00 2.667253880879769112e-02 2.621759253558456071e-02 3.564546591560535660e-01
5.195000000000000000e+03 1.885669395837449303e+00 8.350671678412577847e+00 2.675029659638133300e-02 2.629307393123914496e-02 3.567014504948618492e-01
5.200000000000000000e+03 1.887772492101232658e+00 8.345457388047547553e+00 2.682821065751701470e-02 2.636870231762601657e-02 3.569479665085889541e-01
5.205000000000000000e+03 1.889876795753970606e+00 8.340257247627276271e+00 2.690628116310172027e-02 2.644447783611605582e-02 3.571942078580990776e-01
5.210000000000000000e+03 1.891982305664230868e+00 8.335071203489638592e+00 2.698450828405402416e-02 2.652040062803337483e-02 3.574401752034102597e-01
5.215000000000000000e+03 1.894089020702389714e+00 8.329899202234042122e+00 2.706289219131387258e-02 2.659647083465482148e-02 3.576858692036897214e-01
5.220000000000000000e+03 1.896196939740643073e+00 8.324741190719830541e+00 2.714143305584295479e-02 2.667268859721039567e-02 3.579312905172489789e-01
5.225000000000000000e+03 1.898306061652997645e+00 8.319597116064759490e+00 2.722013104862420346e-02 2.674905405688259366e-02 3.581764398015394590e-01
5.230000000000000000e+03 1.900416385315253143e+00 8.314466925643433370e+00 2.729898634066221796e-02 2.682556735480665436e-02 3.584213177131476136e-01
5.235000000000000000e+03 1.902527909604996958e+00 8.309350567085802552e+00 2.737799910298276823e-02 2.690222863207011178e-02 3.586659249077908118e-01
5.240000000000000000e+03 1.904640633401601946e+00 8.304247988275639258e+00 2.745716950663294742e-02 2.697903802971270484e-02 3.589102620403125110e-01
5.245000000000000000e+03 1.906754555586209987e+00 8.299159137348995685e+00 2.753649772268143212e-02 2.705599568872664798e-02 3.591543297646778710e-01
5.250000000000000000e+03 1.908869675041721781e+00 8.294083962692775813e+00 2.761598392221755946e-02 2.713310175005553132e-02 3.593981287339697572e-01
5.255000000000000000e+03 1.910985990652804611e+00 8.289022412943165108e+00 2.769562827635255187e-02 2.721035635459548296e-02 3.596416596003839117e-01
5.260000000000000000e+03 1.913103501305854159e+00 8.283974436984246736e+00 2.777543095621805291e-02 2.728775964319359731e-02 3.598849230152251222e-01
5.265000000000000000e+03 1.915222205889018037e+00 8.278939983946452585e+00 2.785539213296716471e-02 2.736531175664885102e-02 3.601279196289028373e-01
5.270000000000000000e+03 1.917342103292170918e+00 8.273919003205163492e+00 2.793551197777404890e-02 2.744301283571160335e-02 3.603706500909268917e-01
5.275000000000000000e+03 1.919463192406909435e+00 8.268911444379224207e+00 2.801579066183386771e-02 2.752086302108348870e-02 3.606131150499038984e-01
5.280000000000000000e+03 1.921585472126538408e+00 8.263917257329550736e+00 2.809622835636251328e-02 2.759886245341701058e-02 3.608553151535326409e-01
5.285000000000000000e+03 1.923708941346077284e+00 8.258936392157664841e+00 2.817682523259711427e-02 2.767701127331589905e-02 3.610972510486004095e-01
5.290000000000000000e+03 1.925833598962228832e+00 8.253968799204317364e+00 2.825758146179517191e-02 2.775530962133421556e-02 3.613389233809790047e-01
5.295000000000000000e+03 1.927959443873401124e+00 8.249014429048036945e+00 2.833849721523559045e-02 2.783375763797726887e-02 3.615803327956207958e-01
5.300000000000000000e+03 1.930086474979667344e+00 8.244073232503794202e+00 2.841957266421737960e-02 2.791235546370018569e-02 3.618214799365549461e-01
5.305000000000000000e+03 1.932214691182790212e+00 8.239145160621538011e+00 2.850080798006102145e-02 2.799110323890917004e-02 3.620623654468835828e-01
5.310000000000000000e+03 1.934344091386180464e+00 8.234230164684920084e+00 2.858220333410669417e-02 2.807000110395972692e-02 3.623029899687782440e-01
5.315000000000000000e+03 1.936474674494926163e+00 8.229328196209801050e+00 2.866375889771629812e-02 2.814904919915839701e-02 3.625433541434758822e-01
5.320000000000000000e+03 1.938606439415739846e+00 8.224439206943035430e+00 2.874547484227123195e-02 2.822824766476067157e-02 3.627834586112754223e-01
5.325000000000000000e+03 1.940739385057005828e+00 8.219563148860993707e+00 2.882735133917443959e-02 2.830759664097266468e-02 3.630233040115341536e-01
5.330000000000000000e+03 1.942873510328714470e+00 8.214699974168322427e+00 2.890938855984838407e-02 2.838709626794928137e-02 3.632628909826643993e-01
5.335000000000000000e+03 1.945008814142501041e+00 8.209849635296549764e+00 2.899158667573666429e-02 2.846674668579544931e-02 3.635022201621294080e-01
5.340000000000000000e+03 1.947145295411618626e+00 8.205012084902790548e+00 2.907394585830309561e-02 2.854654803456531734e-02 3.637412921864406901e-01
5.345000000000000000e+03 1.949282953050916367e+00 8.200187275868458414e+00 2.915646627903148436e-02 2.862650045426179402e-02 3.639801076911541311e-01
5.350000000000000000e+03 1.951421785976870993e+00 8.195375161297898003e+00 2.923914810942658538e-02 2.870660408483748788e-02 3.642186673108668282e-01
5.355000000000000000e+03 1.953561793107529754e+00 8.190575694517184147e+00 2.932199152101259629e-02 2.878685906619299698e-02 3.644569716792135927e-01
5.360000000000000000e+03 1.955702973362553498e+00 8.185788829072736306e+00 2.940499668533472569e-02 2.886726553817851176e-02 3.646950214288640635e-01
5.365000000000000000e+03 1.957845325663166047e+00 8.181014518730131968e+00 2.948816377395770821e-02 2.894782364059212201e-02 3.649328171915191543e-01
5.370000000000000000e+03 1.959988848932179728e+00 8.176252717472761944e+00 2.957149295846692172e-02 2.902853351318086458e-02 3.651703595979081673e-01
5.375000000000000000e+03 1.962133542093962513e+00 8.171503379500652642e+00 2.965498441046727357e-02 2.910939529563950912e-02 3.654076492777854068e-01
5.380000000000000000e+03 1.964279404074444679e+00 8.166766459229155117e+00 2.973863830158401250e-02 2.919040912761129702e-02 3.656446868599272926e-01
5.385000000000000000e+03 1.966426433801113038e+00 8.162041911287719387e+00 2.982245480346228800e-02 2.927157514868730312e-02 3.658814729721293624e-01
5.390000000000000000e+03 1.968574630203003606e+00 8.157329690518663412e+00 2.990643408776738274e-02 2.935289349840669582e-02 3.661180082412032744e-01
5.395000000000000000e+03 1.970723992210676734e+00 8.152629751975961625e+00 2.999057632618408117e-02 2.943436431625592528e-02 3.663542932929737539e-01
5.400000000000000000e+03 1.972874518756240647e+00 8.147942050924008583e+00 3.007488169041747442e-02 2.951598774166938957e-02 3.665903287522757625e-01
5.405000000000000000e+03 1.975026208773311032e+00 8.143266542836448352e+00 3.015935035219180146e-02 2.959776391402833828e-02 3.668261152429517780e-01
5.410000000000000000e+03 1.977179061197035459e+00 8.138603183394907958e+00 3.024398248325169472e-02 2.967969297266176767e-02 3.670616533878487964e-01
5.415000000000000000e+03 1.979333074964063410e+00 8.133951928487871186e+00 3.032877825536118427e-02 2.976177505684552554e-02 3.672969438088158345e-01
5.420000000000000000e+03 1.981488249012549163e+00 8.129312734209465319e+00 3.041373784030395114e-02 2.984401030580240144e-02 3.675319871267008209e-01
5.425000000000000000e+03 1.983644582282143354e+00 8.124685556858283420e+00 3.049886140988335506e-02 2.992639885870205380e-02 3.677667839613484313e-01
5.430000000000000000e+03 1.985802073713992089e+00 8.120070352936233249e+00 3.058414913592243795e-02 3.000894085466083647e-02 3.680013349315969795e-01
5.435000000000000000e+03 1.987960722250712742e+00 8.115467079147364871e+00 3.066960119026342427e-02 3.009163643274129912e-02 3.682356406552760864e-01
5.440000000000000000e+03 1.990120526836413495e+00 8.110875692396716019e+00 3.075521774476853987e-02 3.017448573195288808e-02 3.684697017492042370e-01
5.445000000000000000e+03 1.992281486416654035e+00 8.106296149789194772e+00 3.084099897131876294e-02 3.025748889125054464e-02 3.687035188291858945e-01
5.450000000000000000e+03 1.994443599938472644e+00 8.101728408628396494e+00 3.092694504181506265e-02 3.034064604953587777e-02 3.689370925100094456e-01
5.455000000000000000e+03 1.996606866350358667e+00 8.097172426415518487e+00 3.101305612817759072e-02 3.042395734565620652e-02 3.691704234054444811e-01
5.460000000000000000e+03 1.998771284602244735e+00 8.092628160848224894e+00 3.109933240234554266e-02 3.050742291840442127e-02 3.694035121282395751e-01
5.465000000000000000e+03 2.000936853645515878e+00 8.088095569819515163e+00 3.118577403627775108e-02 3.059104290651935495e-02 3.696363592901199535e-01
5.470000000000000000e+03 2.003103572432987534e+00 8.083574611416644018e+00 3.127238120195195703e-02 3.067481744868503710e-02 3.698689655017851630e-01
5.475000000000000000e+03 2.005271439918906662e+00 8.079065243920018347e+00 3.135915407136521948e-02 3.075874668353095406e-02 3.701013313729066279e-01
5.480000000000000000e+03 2.007440455058948636e+00 8.074567425802076315e+00 3.144609281653384936e-02 3.084283074963187210e-02 3.703334575121257632e-01
5.485000000000000000e+03 2.009610616810197037e+00 8.070081115726257082e+00 3.153319760949287870e-02 3.092706978550728569e-02 3.705653445270514212e-01
5.490000000000000000e+03 2.011781924131145871e+00 8.065606272545879918e+00 3.162046862229649785e-02 3.101146392962161880e-02 3.707969930242580037e-01
5.495000000000000000e+03 2.013954375981710232e+00 8.061142855303067734e+00 3.170790602701840932e-02 3.109601332038460994e-02 3.710284036092834081e-01
5.500000000000000000e+03 2.016127971323180113e+00 8.056690823227748766e+00 3.179550999575024572e-02 3.118071809614952200e-02 3.712595768866267520e-01
5.505000000000000000e+03 2.018302709118255489e+00 8.052250135736516157e+00 3.188328070060356123e-02 3.126557839521510590e-02 3.714905134597462633e-01
5.510000000000000000e+03 2.020478588331012126e+00 8.047820752431642077e+00 3.197121831370808298e-02 3.135059435582369936e-02 3.717212139310577257e-01
5.515000000000000000e+03 2.022655607926911348e+00 8.043402633100006582e+00 3.205932300721280048e-02 3.143576611616224342e-02 3.719516789019320924e-01
5.520000000000000000e+03 2.024833766872780938e+00 8.038995737712085088e+00 3.214759495328509825e-02 3.152109381436126595e-02 3.721819089726937646e-01
5.525000000000000000e+03 2.027013064136822251e+00 8.034600026420893215e+00 3.223603432411124847e-02 3.160657758849536730e-02 3.724119047426185380e-01
5.530000000000000000e+03 2.029193498688592889e+00 8.030215459560984925e+00 3.232464129189621671e-02 3.169221757658281097e-02 3.726416668099318819e-01
5.535000000000000000e+03 2.031375069499011143e+00 8.025841997647425785e+00 3.241341602886376599e-02 3.177801391658555824e-02 3.728711957718073844e-01
5.540000000000000000e+03 2.033557775540340451e+00 8.021479601374803536e+00 3.250235870725595028e-02 3.186396674640874088e-02 3.731004922243643662e-01
5.545000000000000000e+03 2.035741615786188508e+00 8.017128231616204914e+00 3.259146949933359322e-02 3.195007620390092479e-02 3.733295567626667144e-01
5.550000000000000000e+03 2.037926589211496164e+00 8.012787849422254638e+00 3.268074857737580940e-02 3.203634242685356182e-02 3.735583899807209396e-01
5.555000000000000000e+03 2.040112694792548531e+00 8.008458416020069137e+00 3.277019611368070517e-02 3.212276555300160735e-02 3.737869924714742886e-01
5.560000000000000000e+03 2.042299931506935895e+00 8.004139892812355939e+00 3.285981228056393533e-02 3.220934572002200763e-02 3.740153648268135789e-01
5.565000000000000000e+03 2.044488298333588805e+00 7.999832241376358510e+00 3.294959725036040316e-02 3.229608306553515690e-02 3.742435076375634218e-01
5.570000000000000000e+03 2.046677794252739879e+00 7.995535423462941438e+00 3.303955119542289348e-02 3.238297772710362760e-02 3.744714214934842245e-01
5.575000000000000000e+03 2.048868418245930023e+00 7.991249400995612540e+00 3.312967428812253756e-02 3.247002984223237160e-02 3.746991069832713572e-01
5.580000000000000000e+03 2.051060169296002211e+00 7.986974136069568964e+00 3.321996670084858411e-02 3.255723954836843570e-02 3.749265646945532660e-01
5.585000000000000000e+03 2.053253046387104597e+00 7.982709590950728185e+00 3.331042860600896133e-02 3.264460698290143348e-02 3.751537952138899179e-01
5.590000000000000000e+03 2.055447048504669194e+00 7.978455728074815845e+00 3.340106017602933325e-02 3.273213228316252527e-02 3.753807991267715805e-01
5.595000000000000000e+03 2.057642174635408328e+00 7.974212510046417179e+00 3.349186158335346053e-02 3.281981558642460550e-02 3.756075770176174888e-01
5.600000000000000000e+03 2.059838423767327509e+00 7.969979899638031107e+00 3.358283300044354047e-02 3.290765702990256641e-02 3.758341294697741253e-01
5.605000000000000000e+03 2.062035794889690798e+00 7.965757859789171391e+00 3.367397459977927027e-02 3.299565675075231963e-02 3.760604570655142753e-01
5.610000000000000000e+03 2.064234286993043010e+00 7.961546353605419846e+00 3.376528655385897804e-02 3.308381488607167048e-02 3.762865603860354180e-01
5.615000000000000000e+03 2.066433899069190172e+00 7.957345344357538153e+00 3.385676903519853342e-02 3.317213157289935349e-02 3.765124400114587266e-01
5.620000000000000000e+03 2.068634630111193307e+00 7.953154795480536166e+00 3.394842221633181251e-02 3.326060694821515729e-02 3.767380965208275145e-01
5.625000000000000000e+03 2.070836479113355999e+00 7.948974670572817480e+00 3.404024626981028145e-02 3.334924114893957764e-02 3.769635304921064578e-01
5.630000000000000000e+03 2.073039445071251485e+00 7.944804933395205104e+00 3.413224136820387083e-02 3.343803431193444892e-02 3.771887425021798745e-01
5.635000000000000000e+03 2.075243526981675579e+00 7.940645547870134990e+00 3.422440768409970580e-02 3.352698657400173671e-02 3.774137331268510032e-01
5.640000000000000000e+03 2.077448723842667100e+00 7.936496478080719896e+00 3.431674539010291097e-02 3.361609807188405824e-02 3.776385029408408367e-01
5.645000000000000000e+03 2.079655034653494550e+00 7.932357688269888740e+00 3.440925465883627743e-02 3.370536894226436320e-02 3.778630525177868460e-01
5.650000000000000000e+03 2.081862458414649453e+00 7.928229142839517962e+00 3.450193566294015857e-02 3.379479932176572554e-02 3.780873824302419806e-01
5.655000000000000000e+03 2.084070994127846355e+00 7.924110806349562885e+00 3.459478857507249094e-02 3.388438934695119087e-02 3.783114932496738358e-01
5.660000000000000000e+03 2.086280640796010388e+00 7.920002643517185525e+00 3.468781356790884285e-02 3.397413915432376946e-02 3.785353855464634321e-01
5.665000000000000000e+03 2.088491397423286156e+00 7.915904619215906379e+00 3.478101081414254614e-02 3.406404888032643630e-02 3.787590598899043259e-01
5.670000000000000000e+03 2.090703263015016411e+00 7.911816698474751774e+00 3.487438048648424521e-02 3.415411866134158286e-02 3.789825168482016116e-01
5.675000000000000000e+03 2.092916236577735845e+00 7.907738846477437633e+00 3.496792275766155700e-02 3.424434863369067022e-02 3.792057569884713097e-01
5.680000000000000000e+03 2.095130317119188401e+00 7.903671028561472411e+00 3.506163780042031303e-02 3.433473893363516577e-02 3.794287808767389802e-01
5.685000000000000000e+03 2.097345503648291754e+00 7.899613210217382608e+00 3.515552578752305368e-02 3.442528969737509992e-02 3.796515890779392777e-01
5.690000000000000000e+03 2.099561795175164836e+00 7.895565357087835245e+00 3.524958689175010373e-02 3.451600106104999593e-02 3.798741821559149523e-01
5.695000000000000000e+03 2.101779190711089207e+00 7.891527434966857157e+00 3.534382128589878824e-02 3.460687316073791930e-02 3.800965606734162394e-01
5.700000000000000000e+03 2.103997689268526816e+00 7.887499409798993888e+00 3.543822914278350195e-02 3.469790613245556099e-02 3.803187251920997491e-01
5.705000000000000000e+03 2.106217289861115116e+00 7.883481247678482795e+00 3.553281063523636152e-02 3.478910011215868153e-02 3.805406762725279668e-01
5.710000000000000000e+03 2.108437991503644415e+00 7.879472914848492771e+00 3.562756593610615780e-02 3.488045523574094531e-02 3.807624144741686423e-01
5.715000000000000000e+03 2.110659793212069424e+00 7.875474377700273365e+00 3.572249521825883456e-02 3.497197163903444095e-02 3.809839403553937909e-01
5.720000000000000000e+03 2.112882694003500816e+00 7.871485602772384738e+00 3.581759865457768977e-02 3.506364945780961195e-02 3.812052544734791937e-01
5.725000000000000000e+03 2.115106692896199458e+00 7.867506556749882307e+00 3.591287641796293839e-02 3.515548882777478484e-02 3.814263573846040090e-01
5.730000000000000000e+03 2.117331788909567969e+00 7.863537206463566243e+00 3.600832868133164305e-02 3.524748988457605120e-02 3.816472496438496620e-01
5.735000000000000000e+03 2.119557981064141838e+00 7.859577518889178549e+00 3.610395561761763766e-02 3.533965276379695541e-02 3.818679318051996230e-01
5.740000000000000000e+03 2.121785268381608969e+00 7.855627461146604595e+00 3.619975739977229767e-02 3.543197760095927185e-02 3.820884044215388520e-01
5.745000000000000000e+03 2.124013649884766153e+00 7.851687000499152802e+00 3.629573420076297879e-02 3.552446453152133948e-02 3.823086680446530217e-01
5.750000000000000000e+03 2.126243124597557266e+00 7.847756104352717976e+00 3.639188619357475868e-02 3.561711369087958157e-02 3.825287232252282399e-01
5.755000000000000000e+03 2.128473691545032853e+00 7.843834740255086757e+00 3.648821355120891730e-02 3.570992521436701372e-02 3.827485705128506055e-01
5.760000000000000000e+03 2.130705349753361677e+00 7.839922875895150689e+00 3.658471644668349898e-02 3.580289923725361867e-02 3.829682104560054867e-01
5.765000000000000000e+03 2.132938098249821834e+00 7.836020479102149494e+00 3.668139505303339570e-02 3.589603589474638784e-02 3.831876436020772991e-01
5.770000000000000000e+03 2.135171936062809639e+00 7.832127517844908127e+00 3.677824954331022217e-02 3.598933532198903690e-02 3.834068704973491171e-01
5.775000000000000000e+03 2.137406862221806758e+00 7.828243960231148435e+00 3.687528009058192030e-02 3.608279765406153389e-02 3.836258916870021740e-01
5.780000000000000000e+03 2.139642875757408191e+00 7.824369774506683584e+00 3.697248686793327271e-02 3.617642302598049475e-02 3.838447077151156961e-01
5.785000000000000000e+03 2.141879975701294736e+00 7.820504929054725274e+00 3.706987004846561823e-02 3.627021157269878088e-02 3.840633191246663469e-01
5.790000000000000000e+03 2.144118161086231655e+00 7.816649392395150997e+00 3.716742980529642165e-02 3.636416342910504113e-02 3.842817264575278391e-01
5.795000000000000000e+03 2.146357430946073119e+00 7.812803133183769511e+00 3.726516631155986359e-02 3.645827873002406572e-02 3.844999302544711561e-01
5.800000000000000000e+03 2.148597784315751547e+00 7.808966120211600526e+00 3.736307974040656982e-02 3.655255761021656419e-02 3.847179310551638309e-01
5.805000000000000000e+03 2.150839220231284266e+00 7.805138322404149953e+00 3.746117026500368069e-02 3.664700020437893641e-02 3.849357293981697792e-01
5.810000000000000000e+03 2.153081737729733991e+00 7.801319708820742882e+00 3.755943805853401846e-02 3.674160664714258562e-02 3.851533258209491328e-01
5.815000000000000000e+03 2.155325335849260782e+00 7.797510248653743758e+00 3.765788329419747504e-02 3.683637707307495235e-02 3.853707208598581291e-01
5.820000000000000000e+03 2.157570013629062533e+00 7.793709911227931109e+00 3.775650614520967285e-02 3.693131161667820989e-02 3.855879150501489439e-01
5.825000000000000000e+03 2.159815770109404287e+00 7.789918665999742586e+00 3.785530678480263783e-02 3.702641041238984715e-02 3.858049089259693032e-01
5.830000000000000000e+03 2.162062604331601356e+00 7.786136482556607064e+00 3.795428538622439701e-02 3.712167359458206500e-02 3.860217030203626498e-01
5.835000000000000000e+03 2.164310515338022878e+00 7.782363330616251851e+00 3.805344212273933935e-02 3.721710129756210239e-02 3.862382978652678100e-01
5.840000000000000000e+03 2.166559502172081153e+00 7.778599180026001925e+00 3.815277716762788957e-02 3.731269365557181306e-02 3.864546939915191048e-01
5.845000000000000000e+03 2.168809563878228097e+00 7.774844000762128005e+00 3.825229069418655675e-02 3.740845080278750595e-02 3.866708919288462387e-01
5.850000000000000000e+03 2.171060699501942359e+00 7.771097762929156438e+00 3.835198287572743475e-02 3.750437287331953584e-02 3.868868922058740778e-01
5.855000000000000000e+03 2.173312908089746198e+00 7.767360436759195075e+00 3.845185388557895850e-02 3.760046000121271270e-02 3.871026953501228163e-01
5.860000000000000000e+03 2.175566188689188607e+00 7.763631992611242261e+00 3.855190389708570281e-02 3.769671232044616987e-02 3.873183018880081430e-01
5.865000000000000000e+03 2.177820540348832878e+00 7.759912400970582880e+00 3.865213308360738315e-02 3.779312996493227467e-02 3.875337123448408527e-01
5.870000000000000000e+03 2.180075962118273480e+00 7.756201632448056493e+00 3.875254161852040996e-02 3.788971306851788429e-02 3.877489272448271795e-01
5.875000000000000000e+03 2.182332453048112519e+00 7.752499657779456932e+00 3.885312967521662580e-02 3.798646176498320093e-02 3.879639471110687410e-01
5.880000000000000000e+03 2.184590012189960184e+00 7.748806447824863497e+00 3.895389742710329145e-02 3.808337618804148034e-02 3.881787724655627048e-01
5.885000000000000000e+03 2.186848638596444960e+00 7.745121973567961504e+00 3.905484504760407816e-02 3.818045647134008652e-02 3.883934038292018442e-01
5.890000000000000000e+03 2.189108331321186984e+00 7.741446206115458750e+00 3.915597271015776315e-02 3.827770274845891663e-02 3.886078417217747605e-01
5.895000000000000000e+03 2.191369089418809590e+00 7.737779116696403392e+00 3.925728058821896516e-02 3.837511515291112257e-02 3.888220866619657712e-01
5.900000000000000000e+03 2.193630911944932205e+00 7.734120676661543570e+00 3.935876885525815133e-02 3.847269381814298617e-02 3.890361391673553548e-01
5.905000000000000000e+03 2.195893797956159688e+00 7.730470857482729663e+00 3.946043768476083929e-02 3.857043887753305866e-02 3.892499997544203172e-01
5.910000000000000000e+03 2.198157746510093435e+00 7.726829630752251710e+00 3.956228725022867959e-02 3.866835046439305590e-02 3.894636689385337358e-01
5.915000000000000000e+03 2.200422756665306956e+00 7.723196968182236333e+00 3.966431772517837323e-02 3.876642871196672724e-02 3.896771472339653486e-01
5.920000000000000000e+03 2.202688827481355638e+00 7.719572841604030344e+00 3.976652928314189372e-02 3.886467375343000130e-02 3.898904351538819979e-01
5.925000000000000000e+03 2.204955958018781637e+00 7.715957222967543494e+00 3.986892209766753487e-02 3.896308572189183944e-02 3.901035332103474640e-01
5.930000000000000000e+03 2.207224147339073905e+00 7.712350084340706680e+00 3.997149634231771803e-02 3.906166475039198754e-02 3.903164419143231312e-01
5.935000000000000000e+03 2.209493394504713493e+00 7.708751397908780945e+00 4.007425219067123345e-02 3.916041097190314790e-02 3.905291617756679323e-01
5.940000000000000000e+03 2.211763698579126913e+00 7.705161135973826347e+00 4.017718981632148467e-02 3.925932451932906408e-02 3.907416933031390149e-01
5.945000000000000000e+03 2.214035058626715902e+00 7.701579270954044709e+00 4.028030939287780693e-02 3.935840552550570748e-02 3.909540370043919078e-01
5.950000000000000000e+03 2.216307473712815668e+00 7.698005775383221838e+00 4.038361109396364224e-02 3.945765412319948706e-02 3.911661933859806872e-01
5.955000000000000000e+03 2.218580942903741970e+00 7.694440621910089817e+00 4.048709509321897493e-02 3.955707044510940046e-02 3.913781629533588102e-01
5.960000000000000000e+03 2.220855465266732498e+00 7.690883783297788767e+00 4.059076156429780591e-02 3.965665462386445961e-02 3.915899462108788920e-01
5.965000000000000000e+03 2.223131039869984171e+00 7.687335232423246012e+00 4.069461068086979022e-02 3.975640679202533528e-02 3.918015436617935943e-01
5.970000000000000000e+03 2.225407665782632272e+00 7.683794942276579221e+00 4.079864261661953623e-02 3.985632708208339953e-02 3.920129558082559584e-01
5.975000000000000000e+03 2.227685342074745112e+00 7.680262885960559949e+00 4.090285754524661255e-02 3.995641562646074646e-02 3.922241831513196830e-01
5.980000000000000000e+03 2.229964067817327589e+00 7.676739036690005236e+00 4.100725564046563132e-02 4.005667255751001882e-02 3.924352261909395678e-01
