#[MATERIAL DEFINITION FOR MC-GPU: interaction mean free path and sampling data from PENELOPE 2006]
#[MATERIAL NAME]
# Bone_50%(0.36:C_0.14:Ca_0.04:H_0.06:N_0.34:O_0.06:P)
#[NOMINAL DENSITY (g/cm^3)]
# 1.4
#[NUMBER OF DATA VALUES]
# 24001
#[MEAN FREE PATHS (cm)]
#[Energy (eV)     | Rayleigh        | Compton         | Photoelectric   | TOTAL (+pair prod) (cm) | Rayleigh: max cumul prob F^2]
5.000000000000000000e+03 1.040510622665125506e+00 7.339886867997121200e+00 5.677418128950659226e-03 5.642267485044388624e-03 2.685962750478629313e-01
5.005000000000000000e+03 1.041611522571241233e+00 7.334760319988131272e+00 5.692898376726080942e-03 5.657585847079994387e-03 2.688484734177478686e-01
5.010000000000000000e+03 1.042711678739372649e+00 7.329650533436215198e+00 5.708406061396662998e-03 5.672931023821528931e-03 2.691005434907098870e-01
5.015000000000000000e+03 1.043811098315081898e+00 7.324557422561833064e+00 5.723941207508459819e-03 5.688303038090024646e-03 2.693524855064139412e-01
5.020000000000000000e+03 1.044909788428102226e+00 7.319480902062077909e+00 5.739503839615046725e-03 5.703701912711525539e-03 2.696042997041404599e-01
5.025000000000000000e+03 1.046007756192482763e+00 7.314420887107973890e+00 5.755093982277558959e-03 5.719127670517143609e-03 2.698559863227832367e-01
5.030000000000000000e+03 1.047105008706746165e+00 7.309377293341692727e+00 5.770711660064759344e-03 5.734580334343121304e-03 2.701075456008472098e-01
5.035000000000000000e+03 1.048201553054022961e+00 7.304350036873907825e+00 5.786356897552973229e-03 5.750059927030774266e-03 2.703589777764468516e-01
5.040000000000000000e+03 1.049297396302209640e+00 7.299339034281057792e+00 5.802029719326196912e-03 5.765566471426611904e-03 2.706102830873040599e-01
5.045000000000000000e+03 1.050392545504094999e+00 7.294344202602707661e+00 5.817730149975954522e-03 5.781099990382191668e-03 2.708614617707466032e-01
5.050000000000000000e+03 1.051487007697514908e+00 7.289365459338856823e+00 5.833458214101429860e-03 5.796660506754269977e-03 2.711125140637054565e-01
5.055000000000000000e+03 1.052580789905487979e+00 7.284402722447285150e+00 5.849213936309485481e-03 5.812248043404817828e-03 2.713634402027138570e-01
5.060000000000000000e+03 1.053673899136347458e+00 7.279455910340945302e+00 5.864997341214534324e-03 5.827862623200897631e-03 2.716142404239050290e-01
5.065000000000000000e+03 1.054766342383890443e+00 7.274524941885299079e+00 5.880808453438747009e-03 5.843504269014886988e-03 2.718649149630104622e-01
5.070000000000000000e+03 1.055858126627499560e+00 7.269609736395749700e+00 5.896647297611869697e-03 5.859173003724297418e-03 2.721154640553580806e-01
5.075000000000000000e+03 1.056949258832284855e+00 7.264710213635008351e+00 5.912513898371375004e-03 5.874868850211924405e-03 2.723658879358706320e-01
5.080000000000000000e+03 1.058039745949217014e+00 7.259826293810524689e+00 5.928408280362405629e-03 5.890591831365810105e-03 2.726161868390639120e-01
5.085000000000000000e+03 1.059129594915251049e+00 7.254957897571924441e+00 5.944330468237769144e-03 5.906341970079243345e-03 2.728663609990449879e-01
5.090000000000000000e+03 1.060218812653459741e+00 7.250104946008451456e+00 5.960280486657996979e-03 5.922119289250813400e-03 2.731164106495109767e-01
5.095000000000000000e+03 1.061307406073160431e+00 7.245267360646419519e+00 5.976258360291284571e-03 5.937923811784365756e-03 2.733663360237465478e-01
5.100000000000000000e+03 1.062395382070046024e+00 7.240445063446665941e+00 5.992264113813616268e-03 5.953755560589140891e-03 2.736161373546232567e-01
5.105000000000000000e+03 1.063482747526302008e+00 7.235637976802076210e+00 6.008297771908660372e-03 5.969614558579654576e-03 2.738658148745973797e-01
5.110000000000000000e+03 1.064569509310732576e+00 7.230846023535042022e+00 6.024359359267792563e-03 5.985500828675750784e-03 2.741153688157084711e-01
5.115000000000000000e+03 1.065655674278890963e+00 7.226069126894977046e+00 6.040448900590225136e-03 6.001414393802730063e-03 2.743647994095778087e-01
5.120000000000000000e+03 1.066741249273186032e+00 7.221307210555865552e+00 6.056566420582847401e-03 6.017355276891181264e-03 2.746141068874071722e-01
5.125000000000000000e+03 1.067826241123010833e+00 7.216560198613778176e+00 6.072711943960302887e-03 6.033323500877092564e-03 2.748632914799767901e-01
5.130000000000000000e+03 1.068910656644856294e+00 7.211828015584419660e+00 6.088885495445013618e-03 6.049319088701861878e-03 2.751123534176444507e-01
5.135000000000000000e+03 1.069994502642436673e+00 7.207110586400680141e+00 6.105087099767279868e-03 6.065342063312407876e-03 2.753612929303436707e-01
5.140000000000000000e+03 1.071077785906792368e+00 7.202407836410242403e+00 6.121316781665065050e-03 6.081392447660970493e-03 2.756101102475824183e-01
5.145000000000000000e+03 1.072160513216406930e+00 7.197719691373161588e+00 6.137574565884126691e-03 6.097470264705235829e-03 2.758588055984417808e-01
5.150000000000000000e+03 1.073242691337333854e+00 7.193046077459410270e+00 6.153860477178194240e-03 6.113575537408531303e-03 2.761073792115744108e-01
5.155000000000000000e+03 1.074324327023282510e+00 7.188386921246583405e+00 6.170174540308618651e-03 6.129708288739471773e-03 2.763558313152034707e-01
5.160000000000000000e+03 1.075405427015751147e+00 7.183742149717450509e+00 6.186516780044666423e-03 6.145868541672275254e-03 2.766041621371208015e-01
5.165000000000000000e+03 1.076485998044124148e+00 7.179111690257626854e+00 6.202887221163455415e-03 6.162056319186685720e-03 2.768523719046862008e-01
5.170000000000000000e+03 1.077566046825782164e+00 7.174495470653214468e+00 6.219285888449890658e-03 6.178271644267939282e-03 2.771004608448258133e-01
5.175000000000000000e+03 1.078645580066208698e+00 7.169893419088468889e+00 6.235712806696795327e-03 6.194514539906876942e-03 2.773484291840309091e-01
5.180000000000000000e+03 1.079724604459092019e+00 7.165305464143481018e+00 6.252168000704768497e-03 6.210785029099828367e-03 2.775962771483566072e-01
5.185000000000000000e+03 1.080803126686433302e+00 7.160731534791866082e+00 6.268651495282313510e-03 6.227083134848740258e-03 2.778440049634208764e-01
5.190000000000000000e+03 1.081881153418649877e+00 7.156171560398424170e+00 6.285163315245890885e-03 6.243408880161235332e-03 2.780916128544029808e-01
5.195000000000000000e+03 1.082958691314669597e+00 7.151625470716927779e+00 6.301703485419730098e-03 6.259762288050432777e-03 2.783391010460426473e-01
5.200000000000000000e+03 1.084035747022037643e+00 7.147093195887786798e+00 6.318272030636006530e-03 6.276143381535128664e-03 2.785864697626387887e-01
5.205000000000000000e+03 1.085112327177011116e+00 7.142574666435813846e+00 6.334868975734798957e-03 6.292552183639762119e-03 2.788337192280482824e-01
5.210000000000000000e+03 1.086188438404662726e+00 7.138069813267951425e+00 6.351494345564111244e-03 6.308988717394455221e-03 2.790808496656848603e-01
5.215000000000000000e+03 1.087264087318968731e+00 7.133578567671076343e+00 6.368148164979827233e-03 6.325453005834954026e-03 2.793278612985183318e-01
5.220000000000000000e+03 1.088339280522910624e+00 7.129100861309724202e+00 6.384830458845803559e-03 6.341945072002736980e-03 2.795747543490729181e-01
5.225000000000000000e+03 1.089414024608569065e+00 7.124636626223916913e+00 6.401541252033785510e-03 6.358464938944953342e-03 2.798215290394269195e-01
5.230000000000000000e+03 1.090488326157214027e+00 7.120185794826926262e+00 6.418280569423524991e-03 6.375012629714522060e-03 2.800681855912111606e-01
5.235000000000000000e+03 1.091562191739398946e+00 7.115748299903114749e+00 6.435048435902689448e-03 6.391588167370065854e-03 2.803147242256081584e-01
5.240000000000000000e+03 1.092635627915050422e+00 7.111324074605743562e+00 6.451844876366891364e-03 6.408191574975938103e-03 2.805611451633510667e-01
5.245000000000000000e+03 1.093708641233560153e+00 7.106913052454790325e+00 6.468669915719809684e-03 6.424822875602356417e-03 2.808074486247227886e-01
5.250000000000000000e+03 1.094781238233867970e+00 7.102515167334843227e+00 6.485523578872956496e-03 6.441482092325179730e-03 2.810536348295551434e-01
5.255000000000000000e+03 1.095853425444561546e+00 7.098130353492891231e+00 6.502405890745992754e-03 6.458169248226221411e-03 2.812997039972275348e-01
5.260000000000000000e+03 1.096925209383942557e+00 7.093758545536270610e+00 6.519316876266427301e-03 6.474884366392961305e-03 2.815456563466665063e-01
5.265000000000000000e+03 1.097996596560134375e+00 7.089399678430478247e+00 6.536256560369858859e-03 6.491627469918799867e-03 2.817914920963445757e-01
5.270000000000000000e+03 1.099067593471151572e+00 7.085053687497099517e+00 6.553224967999885832e-03 6.508398581902956684e-03 2.820372114642794026e-01
5.275000000000000000e+03 1.100138206604991176e+00 7.080720508411704195e+00 6.570222124108142728e-03 6.525197725450541594e-03 2.822828146680328998e-01
5.280000000000000000e+03 1.101208442439706836e+00 7.076400077201763672e+00 6.587248053654261998e-03 6.542024923672494843e-03 2.825283019247106231e-01
5.285000000000000000e+03 1.102278307443501637e+00 7.072092330244575287e+00 6.604302781605958170e-03 6.558880199685701573e-03 2.827736734509607164e-01
5.290000000000000000e+03 1.103347808074793379e+00 7.067797204265219513e+00 6.621386332938909887e-03 6.575763576612865188e-03 2.830189294629730234e-01
5.295000000000000000e+03 1.104416950782309392e+00 7.063514636334469188e+00 6.638498732636964605e-03 6.592675077582732003e-03 2.832640701764787550e-01
5.300000000000000000e+03 1.105485742005151373e+00 7.059244563866800881e+00 6.655640005691919152e-03 6.609614725729863992e-03 2.835090958067491007e-01
5.305000000000000000e+03 1.106554188172886866e+00 7.054986924618313893e+00 6.672810177103777329e-03 6.626582544194913743e-03 2.837540065685951740e-01
5.310000000000000000e+03 1.107622295705605220e+00 7.050741656684788694e+00 6.690009271880427259e-03 6.643578556124321750e-03 2.839988026763666240e-01
5.315000000000000000e+03 1.108690071014017953e+00 7.046508698499576617e+00 6.707237315038080266e-03 6.660602784670719735e-03 2.842434843439513581e-01
5.320000000000000000e+03 1.109757520499508709e+00 7.042287988831727574e+00 6.724494331600814646e-03 6.677655252992533395e-03 2.844880517847747092e-01
5.325000000000000000e+03 1.110824650554227411e+00 7.038079466783892180e+00 6.741780346601018888e-03 6.694735984254402208e-03 2.847325052117988808e-01
5.330000000000000000e+03 1.111891467561145319e+00 7.033883071790447694e+00 6.759095385079028247e-03 6.711845001626823813e-03 2.849768448375220586e-01
5.335000000000000000e+03 1.112957977894138084e+00 7.029698743615464984e+00 6.776439472083380620e-03 6.728982328286428963e-03 2.852210708739778000e-01
5.340000000000000000e+03 1.114024187918057240e+00 7.025526422350789169e+00 6.793812632670779249e-03 6.746147987415945096e-03 2.854651835327347564e-01
5.345000000000000000e+03 1.115090103988782833e+00 7.021366048414130034e+00 6.811214891905905365e-03 6.763342002204015060e-03 2.857091830248955633e-01
5.350000000000000000e+03 1.116155732453320226e+00 7.017217562547051202e+00 6.828646274861824989e-03 6.780564395845618646e-03 2.859530695610966178e-01
5.355000000000000000e+03 1.117221079649836524e+00 7.013080905813162680e+00 6.846106806619490191e-03 6.797815191541560845e-03 2.861968433515073573e-01
5.360000000000000000e+03 1.118286151907756043e+00 7.008956019596102927e+00 6.863596512268258648e-03 6.815094412499027830e-03 2.864405046058297599e-01
5.365000000000000000e+03 1.119350955547805837e+00 7.004842845597738510e+00 6.881115416905479037e-03 6.832402081931157611e-03 2.866840535332976225e-01
5.370000000000000000e+03 1.120415496882094741e+00 7.000741325836205675e+00 6.898663545636775536e-03 6.849738223057339273e-03 2.869274903426763945e-01
5.375000000000000000e+03 1.121479782214166221e+00 6.996651402644091355e+00 6.916240923575894296e-03 6.867102859103065525e-03 2.871708152422622340e-01
5.380000000000000000e+03 1.122543817839066760e+00 6.992573018666536022e+00 6.933847575844788447e-03 6.884496013300032448e-03 2.874140284398818412e-01
5.385000000000000000e+03 1.123607610043414251e+00 6.988506116859385386e+00 6.951483527573638042e-03 6.901917708886143830e-03 2.876571301428918481e-01
5.390000000000000000e+03 1.124671165105453285e+00 6.984450640487346540e+00 6.969148803900859605e-03 6.919367969105558007e-03 2.879001205581783740e-01
5.395000000000000000e+03 1.125734489295112883e+00 6.980406533122176072e+00 6.986843429972975153e-03 6.936846817208546477e-03 2.881429998921565261e-01
5.400000000000000000e+03 1.126797588874077993e+00 6.976373738640819333e+00 7.004567430944870672e-03 6.954354276451760186e-03 2.883857683507700109e-01
5.405000000000000000e+03 1.127860470095833234e+00 6.972352201223651846e+00 7.022320831979506420e-03 6.971890370097953704e-03 2.886284261394907458e-01
5.410000000000000000e+03 1.128923139205739501e+00 6.968341865352614128e+00 7.040103658248199683e-03 6.989455121416267118e-03 2.888709734633183590e-01
5.415000000000000000e+03 1.129985602441076820e+00 6.964342675809468197e+00 7.057915934930492075e-03 7.007048553682104601e-03 2.891134105267799681e-01
5.420000000000000000e+03 1.131047866031107185e+00 6.960354577673997234e+00 7.075757687214144324e-03 7.024670690177139618e-03 2.893557375339295690e-01
5.425000000000000000e+03 1.132109936197131406e+00 6.956377516322231891e+00 7.093628940295217816e-03 7.042321554189398189e-03 2.895979546883479805e-01
5.430000000000000000e+03 1.133171819152545501e+00 6.952411437424698804e+00 7.111529719378028615e-03 7.060001169013224200e-03 2.898400621931420673e-01
5.435000000000000000e+03 1.134233521102888886e+00 6.948456286944668214e+00 7.129460049675138793e-03 7.077709557949275060e-03 2.900820602509448509e-01
5.440000000000000000e+03 1.135295048245907878e+00 6.944512011136391827e+00 7.147419956407477862e-03 7.095446744304652678e-03 2.903239490639149545e-01
5.445000000000000000e+03 1.136356406771595662e+00 6.940578556543417932e+00 7.165409464804148483e-03 7.113212751392713508e-03 2.905657288337362698e-01
5.450000000000000000e+03 1.137417602862261345e+00 6.936655869996807056e+00 7.183428600102663257e-03 7.131007602533314012e-03 2.908073997616178463e-01
5.455000000000000000e+03 1.138478642692570153e+00 6.932743898613470179e+00 7.201477387548810283e-03 7.148831321052685761e-03 2.910489620482935025e-01
5.460000000000000000e+03 1.139539532429593161e+00 6.928842589794452778e+00 7.219555852396629739e-03 7.166683930283415487e-03 2.912904158940213817e-01
5.465000000000000000e+03 1.140600278232866138e+00 6.924951891223229516e+00 7.237664019908584753e-03 7.184565453564622887e-03 2.915317614985840633e-01
5.470000000000000000e+03 1.141660886254431739e+00 6.921071750864037142e+00 7.255801915355381861e-03 7.202475914241796701e-03 2.917729990612882851e-01
5.475000000000000000e+03 1.142721362638891902e+00 6.917202116960197600e+00 7.273969564016127126e-03 7.220415335666941284e-03 2.920141287809642217e-01
5.480000000000000000e+03 1.143781713523457144e+00 6.913342938032437601e+00 7.292166991178284513e-03 7.238383741198560137e-03 2.922551508559658728e-01
5.485000000000000000e+03 1.144841945037986530e+00 6.909494162877277468e+00 7.310394222137580472e-03 7.256381154201557888e-03 2.924960654841706753e-01
5.490000000000000000e+03 1.145902063305040519e+00 6.905655740565340928e+00 7.328651282198150527e-03 7.274407598047395555e-03 2.927368728629790029e-01
5.495000000000000000e+03 1.146962074439933144e+00 6.901827620439724420e+00 7.346938196672595650e-03 7.292463096114152991e-03 2.929775731893144997e-01
5.500000000000000000e+03 1.148021984550759544e+00 6.898009752114427684e+00 7.365254990881672618e-03 7.310547671786234852e-03 2.932181666596236913e-01
5.505000000000000000e+03 1.149081799738461251e+00 6.894202085472650232e+00 7.383601690154740702e-03 7.328661348454802542e-03 2.934586534698757077e-01
5.510000000000000000e+03 1.150141526096853051e+00 6.890404570665256578e+00 7.401978319829422524e-03 7.346804149517472370e-03 2.936990338155622271e-01
5.515000000000000000e+03 1.151201169712679828e+00 6.886617158109136660e+00 7.420384905251808765e-03 7.364976098378505504e-03 2.939393078916975321e-01
5.520000000000000000e+03 1.152260736665647878e+00 6.882839798485647087e+00 7.438821471776316772e-03 7.383177218448678733e-03 2.941794758928183429e-01
5.525000000000000000e+03 1.153320233028475084e+00 6.879072442739007087e+00 7.457288044765844962e-03 7.401407533145450135e-03 2.944195380129833173e-01
5.530000000000000000e+03 1.154379664866928668e+00 6.875315042074736205e+00 7.475784649591643571e-03 7.419667065892836776e-03 2.946594944457736065e-01
5.535000000000000000e+03 1.155439038239870930e+00 6.871567547958099986e+00 7.494311311633482069e-03 7.437955840121578642e-03 2.948993453842922441e-01
5.540000000000000000e+03 1.156498359199291226e+00 6.867829912112547674e+00 7.512868056279501695e-03 7.456273879269015477e-03 2.951390910211644236e-01
5.545000000000000000e+03 1.157557633790352147e+00 6.864102086518174772e+00 7.531454908926280521e-03 7.474621206779147493e-03 2.953787315485373877e-01
5.550000000000000000e+03 1.158616868051425053e+00 6.860384023410198928e+00 7.550071894978836046e-03 7.492997846102649254e-03 2.956182671580800947e-01
5.555000000000000000e+03 1.159676068014136252e+00 6.856675675277393189e+00 7.568719039850750098e-03 7.511403820696983293e-03 2.958576980409834967e-01
5.560000000000000000e+03 1.160735239703387878e+00 6.852976994860648041e+00 7.587396368963866995e-03 7.529839154026145981e-03 2.960970243879605390e-01
5.565000000000000000e+03 1.161794389137417394e+00 6.849287935151366469e+00 7.606103907748717682e-03 7.548303869561064777e-03 2.963362463892461052e-01
5.570000000000000000e+03 1.162853522327816025e+00 6.845608449390044647e+00 7.624841681644155440e-03 7.566797990779243477e-03 2.965753642345966279e-01
5.575000000000000000e+03 1.163912645279573610e+00 6.841938491064738059e+00 7.643609716097616094e-03 7.585321541165043237e-03 2.968143781132908110e-01
5.580000000000000000e+03 1.164971763991112130e+00 6.838278013909604880e+00 7.662408036564889897e-03 7.603874544209462266e-03 2.970532882141292408e-01
5.585000000000000000e+03 1.166030884454324124e+00 6.834626971903400516e+00 7.681236668510461538e-03 7.622457023410457617e-03 2.972920947254342749e-01
5.590000000000000000e+03 1.167090012654600439e+00 6.830985319268046752e+00 7.700095637407193550e-03 7.641069002272669365e-03 2.975307978350504867e-01
5.595000000000000000e+03 1.168149154570868653e+00 6.827353010467168026e+00 7.718984968736426061e-03 7.659710504307506475e-03 2.977693977303443873e-01
5.600000000000000000e+03 1.169208316175629037e+00 6.823730000204620616e+00 7.737904687988148532e-03 7.678381553033323745e-03 2.980078945982047589e-01
5.605000000000000000e+03 1.170267503434977208e+00 6.820116243423093749e+00 7.756854820660755157e-03 7.697082171975203231e-03 2.982462886250425438e-01
5.610000000000000000e+03 1.171326722308650536e+00 6.816511695302630791e+00 7.775835392261248695e-03 7.715812384665143332e-03 2.984845799967910107e-01
5.615000000000000000e+03 1.172385978750051461e+00 6.812916311259253455e+00 7.794846428305158073e-03 7.734572214641991135e-03 2.987227688989058660e-01
5.620000000000000000e+03 1.173445278706277017e+00 6.809330046943511405e+00 7.813887954316551393e-03 7.753361685451472772e-03 2.989608555163651427e-01
5.625000000000000000e+03 1.174504628118152372e+00 6.805752858239116243e+00 7.832959995828009045e-03 7.772180820646155258e-03 2.991988400336698106e-01
5.630000000000000000e+03 1.175564032920268787e+00 6.802184701261483113e+00 7.852062578380765087e-03 7.791029643785613891e-03 2.994367226348434996e-01
5.635000000000000000e+03 1.176623499040997611e+00 6.798625532356409096e+00 7.871195727524558927e-03 7.809908178436264850e-03 2.996745035034326099e-01
5.640000000000000000e+03 1.177683032402533803e+00 6.795075308098647682e+00 7.890359468817720323e-03 7.828816448171488362e-03 2.999121828225067565e-01
5.645000000000000000e+03 1.178742638920916797e+00 6.791533985290548969e+00 7.909553827827153771e-03 7.847754476571594875e-03 3.001497607746587137e-01
5.650000000000000000e+03 1.179802324506060263e+00 6.788001520960698087e+00 7.928778830128381874e-03 7.866722287223891844e-03 3.003872375420045260e-01
5.655000000000000000e+03 1.180862095061782524e+00 6.784477872362557171e+00 7.948034501305455135e-03 7.885719903722587451e-03 3.006246133061840076e-01
5.660000000000000000e+03 1.181921956485831204e+00 6.780962996973106449e+00 7.967320866951082062e-03 7.904747349668934595e-03 3.008618882483606316e-01
5.665000000000000000e+03 1.182981914669912760e+00 6.777456852491509309e+00 7.986637952666604881e-03 7.923804648671211801e-03 3.010990625492215855e-01
5.670000000000000000e+03 1.184041975499718680e+00 6.773959396837780034e+00 8.005985784061966579e-03 7.942891824344700674e-03 3.013361363889785483e-01
5.675000000000000000e+03 1.185102144854943251e+00 6.770470588151473734e+00 8.025364386755632837e-03 7.962008900311604367e-03 3.015731099473673016e-01
5.680000000000000000e+03 1.186162428609325303e+00 6.766990384790326551e+00 8.044773786374881733e-03 7.981155900201356360e-03 3.018099834036482298e-01
5.685000000000000000e+03 1.187222832630655533e+00 6.763518745328997994e+00 8.064214008555435978e-03 8.000332847650242288e-03 3.020467569366066529e-01
5.690000000000000000e+03 1.188283362780818697e+00 6.760055628557715579e+00 8.083685078941835883e-03 8.019539766301811076e-03 3.022834307245527152e-01
5.695000000000000000e+03 1.189344024915800935e+00 6.756600993481029604e+00 8.103187023187165272e-03 8.038776679806567890e-03 3.025200049453220519e-01
5.700000000000000000e+03 1.190404824885723745e+00 6.753154799316500423e+00 8.122719866953133014e-03 8.058043611822093832e-03 3.027564797762757332e-01
5.705000000000000000e+03 1.191465768534869962e+00 6.749717005493407029e+00 8.142283635910274250e-03 8.077340586013233292e-03 3.029928553943005420e-01
5.710000000000000000e+03 1.192526861701695529e+00 6.746287571651507164e+00 8.161878355737638147e-03 8.096667626051797309e-03 3.032291319758095849e-01
5.715000000000000000e+03 1.193588110218860576e+00 6.742866457639753008e+00 8.181504052122975240e-03 8.116024755616759595e-03 3.034653096967421249e-01
5.720000000000000000e+03 1.194649519913250080e+00 6.739453623515029079e+00 8.201160750762789484e-03 8.135411998394317251e-03 3.037013887325640815e-01
5.725000000000000000e+03 1.195711096605997170e+00 6.736049029540915889e+00 8.220848477362253243e-03 8.154829378077784949e-03 3.039373692582684194e-01
5.730000000000000000e+03 1.196772846112498900e+00 6.732652636186446493e+00 8.240567257635202092e-03 8.174276918367648706e-03 3.041732514483752037e-01
5.735000000000000000e+03 1.197834774242437783e+00 6.729264404124870147e+00 8.260317117304127876e-03 8.193754642971510377e-03 3.044090354769322659e-01
5.740000000000000000e+03 1.198896886799813100e+00 6.725884294232410632e+00 8.280098082100404225e-03 8.213262575604353063e-03 3.046447215175151491e-01
5.745000000000000000e+03 1.199959189582944230e+00 6.722512267587078760e+00 8.299910177763908381e-03 8.232800739988162947e-03 3.048803097432275511e-01
5.750000000000000000e+03 1.201021688384507735e+00 6.719148285467411164e+00 8.319753430043435802e-03 8.252369159852340416e-03 3.051158003267019359e-01
5.755000000000000000e+03 1.202084388991542019e+00 6.715792309351315659e+00 8.339627864696370560e-03 8.271967858933391288e-03 3.053511934400994776e-01
5.760000000000000000e+03 1.203147297185474196e+00 6.712444300914843787e+00 8.359533507488905654e-03 8.291596860975141911e-03 3.055864892551106160e-01
5.765000000000000000e+03 1.204210418742135191e+00 6.709104222031002429e+00 8.379470384195921578e-03 8.311256189728622942e-03 3.058216879429553892e-01
5.770000000000000000e+03 1.205273759431785274e+00 6.705772034768565426e+00 8.399438520601132038e-03 8.330945868952234143e-03 3.060567896743838778e-01
5.775000000000000000e+03 1.206337325019120277e+00 6.702447701390915391e+00 8.419437942496913949e-03 8.350665922411569173e-03 3.062917946196763164e-01
5.780000000000000000e+03 1.207401121263300459e+00 6.699131184354850888e+00 8.439468675684458354e-03 8.370416373879582123e-03 3.065267029486439254e-01
5.785000000000000000e+03 1.208465153917960500e+00 6.695822446309425580e+00 8.459530745973780838e-03 8.390197247136582312e-03 3.067615148306286899e-01
5.790000000000000000e+03 1.209529428731227929e+00 6.692521450094814917e+00 8.479624179183525498e-03 8.410008565970078162e-03 3.069962304345043025e-01
5.795000000000000000e+03 1.210593951445740668e+00 6.689228158741140184e+00 8.499749001141206073e-03 8.429850354174997507e-03 3.072308499286762751e-01
5.800000000000000000e+03 1.211658727798661683e+00 6.685942535467334302e+00 8.519905237683171248e-03 8.449722635553666775e-03 3.074653734810824379e-01
5.805000000000000000e+03 1.212723763521704079e+00 6.682664543679990743e+00 8.540092914654521389e-03 8.469625433915738133e-03 3.076998012591934950e-01
5.810000000000000000e+03 1.213789064341123325e+00 6.679394146972287061e+00 8.560312057909072112e-03 8.489558773078158260e-03 3.079341334300129129e-01
5.815000000000000000e+03 1.214854635977762332e+00 6.676131309122785851e+00 8.580562693309583266e-03 8.509522676865392127e-03 3.081683701600779757e-01
5.820000000000000000e+03 1.215920484147043457e+00 6.672875994094379593e+00 8.600844846727561180e-03 8.529517169109244318e-03 3.084025116154600621e-01
5.825000000000000000e+03 1.216986614558991597e+00 6.669628166033147565e+00 8.621158544043321104e-03 8.549542273648928423e-03 3.086365579617646460e-01
5.830000000000000000e+03 1.218053032918251066e+00 6.666387789267276709e+00 8.641503811146004563e-03 8.569598014331072239e-03 3.088705093641323507e-01
5.835000000000000000e+03 1.219119744924093807e+00 6.663154828305941635e+00 8.661880673933645275e-03 8.589684415009816651e-03 3.091043659872391713e-01
5.840000000000000000e+03 1.220186756270438488e+00 6.659929247838221045e+00 8.682289158313063332e-03 8.609801499546688996e-03 3.093381279952965857e-01
5.845000000000000000e+03 1.221254072645859390e+00 6.656711012732030142e+00 8.702729290199939793e-03 8.629949291810696740e-03 3.095717955520526643e-01
5.850000000000000000e+03 1.222321699733598166e+00 6.653500088033038828e+00 8.723201095518776788e-03 8.650127815678297985e-03 3.098053688207921263e-01
5.855000000000000000e+03 1.223389643211581612e+00 6.650296438963584578e+00 8.743704600202970370e-03 8.670337095033470859e-03 3.100388479643367279e-01
5.860000000000000000e+03 1.224457908752434321e+00 6.647100030921617275e+00 8.764239830194781034e-03 8.690577153767685761e-03 3.102722331450460391e-01
5.865000000000000000e+03 1.225526502023482456e+00 6.643910829479659164e+00 8.784806811445286870e-03 8.710848015779879341e-03 3.105055245248179441e-01
5.870000000000000000e+03 1.226595428686776845e+00 6.640728800383719488e+00 8.805405569914520614e-03 8.731149704976593276e-03 3.107387222650887515e-01
5.875000000000000000e+03 1.227664694399096534e+00 6.637553909552278419e+00 8.826036131571367294e-03 8.751482245271854574e-03 3.109718265268341386e-01
5.880000000000000000e+03 1.228734304811959666e+00 6.634386123075243447e+00 8.846698522393543415e-03 8.771845660587196392e-03 3.112048374705693732e-01
5.885000000000000000e+03 1.229804265571645239e+00 6.631225407212897771e+00 8.867392768367760025e-03 8.792239974851798548e-03 3.114377552563500351e-01
5.890000000000000000e+03 1.230874582319186450e+00 6.628071728394894890e+00 8.888118895489540566e-03 8.812665212002324458e-03 3.116705800437722385e-01
5.895000000000000000e+03 1.231945260690394894e+00 6.624925053219236304e+00 8.908876929763361388e-03 8.833121395983061647e-03 3.119033119919734642e-01
5.900000000000000000e+03 1.233016306315868560e+00 6.621785348451241227e+00 8.929666897202618789e-03 8.853608550745900932e-03 3.121359512596328933e-01
5.905000000000000000e+03 1.234087724820994936e+00 6.618652581022558046e+00 8.950488823829563095e-03 8.874126700250270505e-03 3.123684980049720727e-01
5.910000000000000000e+03 1.235159521825970774e+00 6.615526718030141140e+00 8.971342735675479074e-03 8.894675868463305934e-03 3.126009523857554151e-01
5.915000000000000000e+03 1.236231702945800537e+00 6.612407726735279212e+00 8.992228658780517664e-03 8.915256079359723529e-03 3.128333145592905318e-01
5.920000000000000000e+03 1.237304273790311493e+00 6.609295574562593423e+00 9.013146619193680362e-03 8.935867356921778706e-03 3.130655846824291766e-01
5.925000000000000000e+03 1.238377239964169041e+00 6.606190229099031086e+00 9.034096642973133209e-03 8.956509725139602529e-03 3.132977629115674678e-01
5.930000000000000000e+03 1.239450607066867160e+00 6.603091658092944627e+00 9.055078756185740152e-03 8.977183208010721185e-03 3.135298494026466654e-01
5.935000000000000000e+03 1.240524380692757500e+00 6.599999829453044420e+00 9.076092984907529679e-03 8.997887829540557325e-03 3.137618443111536148e-01
5.940000000000000000e+03 1.241598566431042938e+00 6.596914711247501728e+00 9.097139355223323592e-03 9.018623613742031073e-03 3.139937477921213027e-01
5.945000000000000000e+03 1.242673169865794680e+00 6.593836271702929963e+00 9.118217893227099566e-03 9.039390584635946871e-03 3.142255600001295224e-01
5.950000000000000000e+03 1.243748196575948262e+00 6.590764479203490289e+00 9.139328625021559196e-03 9.060188766250566739e-03 3.144572810893053183e-01
5.955000000000000000e+03 1.244823652135330194e+00 6.587699302289867553e+00 9.160471576718651893e-03 9.081018182622130688e-03 3.146889112133237631e-01
5.960000000000000000e+03 1.245899542112641756e+00 6.584640709658398094e+00 9.181646774439078743e-03 9.101878857794372737e-03 3.149204505254084019e-01
5.965000000000000000e+03 1.246975872071484748e+00 6.581588670160092747e+00 9.202854244312686297e-03 9.122770815818909487e-03 3.151518991783317514e-01
5.970000000000000000e+03 1.248052647570361051e+00 6.578543152799702476e+00 9.224094012478279217e-03 9.143694080755070119e-03 3.153832573244163551e-01
5.975000000000000000e+03 1.249129874162677289e+00 6.575504126734809773e+00 9.245366105083628952e-03 9.164648676669901600e-03 3.156145251155347831e-01
5.980000000000000000e+03 1.250207557396753044e+00 6.572471561274901397e+00 9.266670548285529246e-03 9.185634627638229396e-03 3.158457027031105757e-01
