#[MATERIAL DEFINITION FOR MC-GPU: interaction mean free path and sampling data from PENELOPE 2006]
#[MATERIAL NAME]
# bone_mass_fraction(0.036:H_0.159:C_0.042:N_0.448:O_0.003:Na_0.002:Mg_0.094:P_0.003:S_0.213:Ca)
#[NOMINAL DENSITY (g/cm^3)]
# 1.92
#[NUMBER OF DATA VALUES]
# 24001
#[MEAN FREE PATHS (cm)]
#[Energy (eV)     | Rayleigh        | Compton         | Photoelectric   | TOTAL (+pair prod) (cm) | Rayleigh: max cumul prob F^2]
5.000000000000000000e+03 6.135197337164295384e-01 5.683001315717735480e+00 2.864035218848022622e-03 2.849298166726776157e-03 2.564309807971355548e-01
5.005000000000000000e+03 6.141537808113499697e-01 5.678779703960815439e+00 2.871777793134842362e-03 2.856973826938451373e-03 2.566842317346919589e-01
5.010000000000000000e+03 6.147872255700689292e-01 5.674572844647119751e+00 2.879533938875996138e-03 2.864662802403375973e-03 2.569373635792154276e-01
5.015000000000000000e+03 6.154200734438074472e-01 5.670380654962161593e+00 2.887303668077695947e-03 2.872365104438707236e-03 2.571903764990359220e-01
5.020000000000000000e+03 6.160523298718224572e-01 5.666203052574614318e+00 2.895086992749981887e-03 2.880080744364620429e-03 2.574432706623194789e-01
5.025000000000000000e+03 6.166840002814848454e-01 5.662039955633474619e+00 2.902883924906748611e-03 2.887809733504336125e-03 2.576960462370658789e-01
5.030000000000000000e+03 6.173150900883656034e-01 5.657891282765175944e+00 2.910694476565769614e-03 2.895552083184153597e-03 2.579487033911059823e-01
5.035000000000000000e+03 6.179456046963086591e-01 5.653756953070797842e+00 2.918518659748676851e-03 2.903307804733424799e-03 2.582012422920996753e-01
5.040000000000000000e+03 6.185755494975172519e-01 5.649636886123211355e+00 2.926356486481000198e-03 2.911076909484612476e-03 2.584536631075337598e-01
5.045000000000000000e+03 6.192049298726233220e-01 5.645531001964325668e+00 2.934207968792107175e-03 2.918859408773219477e-03 2.587059660047189569e-01
5.050000000000000000e+03 6.198337511907712205e-01 5.641439221102266366e+00 2.942073118715265393e-03 2.926655313937864648e-03 2.589581511507880185e-01
5.055000000000000000e+03 6.204620188096944267e-01 5.637361464508602538e+00 2.949951948287646893e-03 2.934464636320291506e-03 2.592102187126936741e-01
5.060000000000000000e+03 6.210897380757861574e-01 5.633297653615620959e+00 2.957844469550269598e-03 2.942287387265308824e-03 2.594621688572061324e-01
5.065000000000000000e+03 6.217169143241825235e-01 5.629247710313539876e+00 2.965750694548101394e-03 2.950123578120899051e-03 2.597140017509106946e-01
5.070000000000000000e+03 6.223435528788302529e-01 5.625211556947823155e+00 2.973670635329962123e-03 2.957973220238130710e-03 2.599657175602061443e-01
5.075000000000000000e+03 6.229696590525647393e-01 5.621189116316438472e+00 2.981604303948603811e-03 2.965836324971239061e-03 2.602173164513019166e-01
5.080000000000000000e+03 6.235952381471849826e-01 5.617180311667153703e+00 2.989551712460682912e-03 2.973712903677601382e-03 2.604687985902165437e-01
5.085000000000000000e+03 6.242202954535217563e-01 5.613185066694875047e+00 2.997512872926754671e-03 2.981602967717736970e-03 2.607201641427751571e-01
5.090000000000000000e+03 6.248448362515125476e-01 5.609203305538962070e+00 3.005487797411303050e-03 2.989506528455343568e-03 2.609714132746078219e-01
5.095000000000000000e+03 6.254688658102719456e-01 5.605234952780572932e+00 3.013476497982709064e-03 2.997423597257265274e-03 2.612225461511467062e-01
5.100000000000000000e+03 6.260923893881670255e-01 5.601279933440005188e+00 3.021478986713319308e-03 3.005354185493568867e-03 2.614735629376250814e-01
5.105000000000000000e+03 6.267154122328809640e-01 5.597338172974096082e+00 3.029495275679385674e-03 3.013298304537488301e-03 2.617244637990746026e-01
5.110000000000000000e+03 6.273379395814858706e-01 5.593409597273586442e+00 3.037525376961080093e-03 3.021255965765442045e-03 2.619752489003233653e-01
5.115000000000000000e+03 6.279599766605151734e-01 5.589494132660512982e+00 3.045569302642560025e-03 3.029227180557101610e-03 2.622259184059943515e-01
5.120000000000000000e+03 6.285815286860254592e-01 5.585591705885649461e+00 3.053627064811883889e-03 3.037211960295315653e-03 2.624764724805030425e-01
5.125000000000000000e+03 6.292026008636686374e-01 5.581702244125911427e+00 3.061698675561056165e-03 3.045210316366155946e-03 2.627269112880557533e-01
5.130000000000000000e+03 6.298231983887568886e-01 5.577825674981805371e+00 3.069784146986033902e-03 3.053222260158929523e-03 2.629772349926478014e-01
5.135000000000000000e+03 6.304433264463346065e-01 5.573961926474861883e+00 3.077883491186777457e-03 3.061247803066232450e-03 2.632274437580613968e-01
5.140000000000000000e+03 6.310629902112361300e-01 5.570110927045141658e+00 3.085996720267144677e-03 3.069286956483850953e-03 2.634775377478639213e-01
5.145000000000000000e+03 6.316821948481554649e-01 5.566272605548701513e+00 3.094123846334952913e-03 3.077339731810826897e-03 2.637275171254060968e-01
5.150000000000000000e+03 6.323009455117163391e-01 5.562446891255051540e+00 3.102264881502072268e-03 3.085406140449552768e-03 2.639773820538204308e-01
5.155000000000000000e+03 6.329192473465237168e-01 5.558633713844737478e+00 3.110419837884244310e-03 3.093486193805599065e-03 2.642271326960189959e-01
5.160000000000000000e+03 6.335371054872397378e-01 5.554833003406797864e+00 3.118588727601232999e-03 3.101579903287867389e-03 2.644767692146919313e-01
5.165000000000000000e+03 6.341545250586407834e-01 5.551044690436335749e+00 3.126771562776792593e-03 3.109687280308560519e-03 2.647262917723056663e-01
5.170000000000000000e+03 6.347715111756808692e-01 5.547268705832053115e+00 3.134968355538633386e-03 3.117808336283160297e-03 2.649757005311013103e-01
5.175000000000000000e+03 6.353880689435544848e-01 5.543504980893819045e+00 3.143179118018483292e-03 3.125943082630484437e-03 2.652249956530927655e-01
5.180000000000000000e+03 6.360042034577556569e-01 5.539753447320255653e+00 3.151403862352027130e-03 3.134091530772633617e-03 2.654741773000652838e-01
5.185000000000000000e+03 6.366199198041415652e-01 5.536014037206309801e+00 3.159642600678959964e-03 3.142253692135053497e-03 2.657232456335735238e-01
5.190000000000000000e+03 6.372352230589921618e-01 5.532286683040852360e+00 3.167895345143019199e-03 3.150429578146566375e-03 2.659722008149403294e-01
5.195000000000000000e+03 6.378501182890681243e-01 5.528571317704326304e+00 3.176162107891887434e-03 3.158619200239277947e-03 2.662210430052547316e-01
5.200000000000000000e+03 6.384646105516715853e-01 5.524867874466340645e+00 3.184442901077281802e-03 3.166822569848676185e-03 2.664697723653707273e-01
5.205000000000000000e+03 6.390787048947025317e-01 5.521176286983338954e+00 3.192737736854932284e-03 3.175039698413608790e-03 2.667183890559052806e-01
5.210000000000000000e+03 6.396924063567221985e-01 5.517496489296224382e+00 3.201046627384592988e-03 3.183270597376304002e-03 2.669668932372371573e-01
5.215000000000000000e+03 6.403057199670030286e-01 5.513828415828069929e+00 3.209369584830017424e-03 3.191515278182344151e-03 2.672152850695055371e-01
5.220000000000000000e+03 6.409186507455905124e-01 5.510172001381755891e+00 3.217706621359007514e-03 3.199773752280724633e-03 2.674635647126077931e-01
5.225000000000000000e+03 6.415312037033599202e-01 5.506527181137702343e+00 3.226057749143368056e-03 3.208046031123813584e-03 2.677117323261987702e-01
5.230000000000000000e+03 6.421433838420689266e-01 5.502893890651538555e+00 3.234422980358969170e-03 3.216332126167410418e-03 2.679597880696890089e-01
5.235000000000000000e+03 6.427551961544160086e-01 5.499272065851863012e+00 3.242802327185697296e-03 3.224632048870712444e-03 2.682077321022433014e-01
5.240000000000000000e+03 6.433666456240928477e-01 5.495661643037941246e+00 3.251195801807468637e-03 3.232945810696325264e-03 2.684555645827793047e-01
5.245000000000000000e+03 6.439777372258417287e-01 5.492062558877464085e+00 3.259603416412294643e-03 3.241273423110336508e-03 2.687032856699660965e-01
5.250000000000000000e+03 6.445884759255049445e-01 5.488474750404322755e+00 3.268025183192162751e-03 3.249614897582196998e-03 2.689508955222230102e-01
5.255000000000000000e+03 6.451988666800846373e-01 5.484898155016337817e+00 3.276461114343192510e-03 3.257970245584885984e-03 2.691983942977178579e-01
5.260000000000000000e+03 6.458089144377855417e-01 5.481332710473096448e+00 3.284911222065483357e-03 3.266339478594764128e-03 2.694457821543659870e-01
5.265000000000000000e+03 6.464186241380782683e-01 5.477778354893704460e+00 3.293375518563241688e-03 3.274722608091701435e-03 2.696930592498287815e-01
5.270000000000000000e+03 6.470280007117442667e-01 5.474235026754607603e+00 3.301854016044728814e-03 3.283119645559026949e-03 2.699402257415123851e-01
5.275000000000000000e+03 6.476370490809305602e-01 5.470702664887412858e+00 3.310346726722286984e-03 3.291530602483567353e-03 2.701872817865663134e-01
5.280000000000000000e+03 6.482457741591962641e-01 5.467181208476727505e+00 3.318853662812306423e-03 3.299955490355616604e-03 2.704342275418823993e-01
5.285000000000000000e+03 6.488541808515690956e-01 5.463670597057991074e+00 3.327374836535282147e-03 3.308394320668992319e-03 2.706810631640934606e-01
5.290000000000000000e+03 6.494622740545880069e-01 5.460170770515351713e+00 3.335910260115746741e-03 3.316847104920975058e-03 2.709277888095718012e-01
5.295000000000000000e+03 6.500700586563595840e-01 5.456681669079502583e+00 3.344459945782372705e-03 3.325313854612420641e-03 2.711744046344286008e-01
5.300000000000000000e+03 6.506775395366011239e-01 5.453203233325611521e+00 3.353023905767864472e-03 3.333794581247650872e-03 2.714209107945120270e-01
5.305000000000000000e+03 6.512847215666962564e-01 5.449735404171151210e+00 3.361602152309085909e-03 3.342289296334586234e-03 2.716673074454065695e-01
5.310000000000000000e+03 6.518916096097304713e-01 5.446278122873884797e+00 3.370194697646900286e-03 3.350798011384594106e-03 2.719135947424315969e-01
5.315000000000000000e+03 6.524982085205557336e-01 5.442831331029687192e+00 3.378801554026385819e-03 3.359320737912703005e-03 2.721597728406404126e-01
5.320000000000000000e+03 6.531045231458202371e-01 5.439394970570576859e+00 3.387422733696611021e-03 3.367857487437390940e-03 2.724058418948189786e-01
5.325000000000000000e+03 6.537105583240296891e-01 5.435968983762563767e+00 3.396058248910858047e-03 3.376408271480804430e-03 2.726518020594849157e-01
5.330000000000000000e+03 6.543163188855812828e-01 5.432553313203674072e+00 3.404708111926429276e-03 3.384973101568574620e-03 2.728976534888863381e-01
5.335000000000000000e+03 6.549218096528183208e-01 5.429147901821869127e+00 3.413372335004792590e-03 3.393551989229969066e-03 2.731433963370007434e-01
5.340000000000000000e+03 6.555270354400736244e-01 5.425752692873038185e+00 3.422050930411545816e-03 3.402144945997853144e-03 2.733890307575341239e-01
5.345000000000000000e+03 6.561320010537070591e-01 5.422367629939000899e+00 3.430743910416334322e-03 3.410751983408621523e-03 2.736345569039198011e-01
5.350000000000000000e+03 6.567367112921635997e-01 5.418992656925468054e+00 3.439451287293050514e-03 3.419373113002397227e-03 2.738799749293174823e-01
5.355000000000000000e+03 6.573411709460011965e-01 5.415627718060109785e+00 3.448173073319577963e-03 3.428008346322778364e-03 2.741252849866120389e-01
5.360000000000000000e+03 6.579453847979500614e-01 5.412272757890502994e+00 3.456909280778062889e-03 3.436657694917121756e-03 2.743704872284128404e-01
5.365000000000000000e+03 6.585493576229431989e-01 5.408927721282251078e+00 3.465659921954699057e-03 3.445321170336323058e-03 2.746155818070525889e-01
5.370000000000000000e+03 6.591530941881681427e-01 5.405592553416946444e+00 3.474425009139865683e-03 3.453998784134968986e-03 2.748605688745864306e-01
5.375000000000000000e+03 6.597565992531027046e-01 5.402267199790294683e+00 3.483204554628063689e-03 3.462690547871269224e-03 2.751054485827909013e-01
5.380000000000000000e+03 6.603598775695590506e-01 5.398951606210149912e+00 3.491998570717946490e-03 3.471396473107097192e-03 2.753502210831630936e-01
5.385000000000000000e+03 6.609629338817277766e-01 5.395645718794584766e+00 3.500807069712333439e-03 3.480116571408006527e-03 2.755948865269197690e-01
5.390000000000000000e+03 6.615657729262177655e-01 5.392349483969999469e+00 3.509630063918213298e-03 3.488850854343240188e-03 2.758394450649965801e-01
5.395000000000000000e+03 6.621683994320919364e-01 5.389062848469226452e+00 3.518467565646680919e-03 3.497599333485671477e-03 2.760838968480466837e-01
5.400000000000000000e+03 6.627708181209166494e-01 5.385785759329619005e+00 3.527319587213066047e-03 3.506362020411937612e-03 2.763282420264406292e-01
5.405000000000000000e+03 6.633730337067909044e-01 5.382518163891210961e+00 3.536186140936784569e-03 3.515138926702294445e-03 2.765724807502648597e-01
5.410000000000000000e+03 6.639750508963970788e-01 5.379260009794811559e+00 3.545067239141481627e-03 3.523930063940765214e-03 2.768166131693212684e-01
5.415000000000000000e+03 6.645768743890311248e-01 5.376011244980171355e+00 3.553962894154970905e-03 3.532735443715081126e-03 2.770606394331262545e-01
5.420000000000000000e+03 6.651785088766443144e-01 5.372771817684148132e+00 3.562873118309219014e-03 3.541555077616679193e-03 2.773045596909098354e-01
5.425000000000000000e+03 6.657799590438838733e-01 5.369541676438843503e+00 3.571797923940399268e-03 3.550388977240752537e-03 2.775483740916150910e-01
5.430000000000000000e+03 6.663812295681288411e-01 5.366320770069812340e+00 3.580737323388859163e-03 3.559237154186223068e-03 2.777920827838970541e-01
5.435000000000000000e+03 6.669823251195261538e-01 5.363109047694236686e+00 3.589691328999122539e-03 3.568099620055753193e-03 2.780356859161223215e-01
5.440000000000000000e+03 6.675832503610319435e-01 5.359906458719111200e+00 3.598659953119942925e-03 3.576976386455799160e-03 2.782791836363681104e-01
5.445000000000000000e+03 6.681840099484422923e-01 5.356712952839490782e+00 3.607643208104212469e-03 3.585867464996527355e-03 2.785225760924213700e-01
5.450000000000000000e+03 6.687846085304379740e-01 5.353528480036661819e+00 3.616641106309078594e-03 3.594772867291933568e-03 2.787658634317784490e-01
5.455000000000000000e+03 6.693850507486144297e-01 5.350352990576407564e+00 3.625653660095873743e-03 3.603692604959779673e-03 2.790090458016442621e-01
5.460000000000000000e+03 6.699853412375179618e-01 5.347186435007245109e+00 3.634680881830105841e-03 3.612626689621586257e-03 2.792521233489311805e-01
5.465000000000000000e+03 6.705854846246850354e-01 5.344028764158656131e+00 3.643722783881542422e-03 3.621575132902722823e-03 2.794950962202589761e-01
5.470000000000000000e+03 6.711854855306728096e-01 5.340879929139375371e+00 3.652779378624123035e-03 3.630537946432327995e-03 2.797379645619538779e-01
5.475000000000000000e+03 6.717853485690976623e-01 5.337739881335643588e+00 3.661850678436034696e-03 3.639515141843379341e-03 2.799807285200479057e-01
5.480000000000000000e+03 6.723850783466687187e-01 5.334608572409480942e+00 3.670936695699691076e-03 3.648506730772689468e-03 2.802233882402783149e-01
5.485000000000000000e+03 6.729846794632187157e-01 5.331485954297023433e+00 3.680037442801680891e-03 3.657512724860855283e-03 2.804659438680868200e-01
5.490000000000000000e+03 6.735841565117406393e-01 5.328371979206777631e+00 3.689152932132856375e-03 3.666533135752342125e-03 2.807083955486191496e-01
5.495000000000000000e+03 6.741835140784251390e-01 5.325266599617935803e+00 3.698283176088336312e-03 3.675567975095508054e-03 2.809507434267244919e-01
5.500000000000000000e+03 6.747827567426831763e-01 5.322169768278749657e+00 3.707428187067374203e-03 3.684617254542460300e-03 2.811929876469547729e-01
5.505000000000000000e+03 6.753818890771903227e-01 5.319081438204788626e+00 3.716587977473565126e-03 3.693680985749279045e-03 2.814351283535639903e-01
5.510000000000000000e+03 6.759809156479105186e-01 5.316001562677341141e+00 3.725762559714688310e-03 3.702759180375855656e-03 2.816771656905080468e-01
5.515000000000000000e+03 6.765798410141343755e-01 5.312930095241734207e+00 3.734951946202800816e-03 3.711851850085995472e-03 2.819190998014439176e-01
5.520000000000000000e+03 6.771786697285059331e-01 5.309866989705712470e+00 3.744156149354166841e-03 3.720959006547354484e-03 2.821609308297290397e-01
5.525000000000000000e+03 6.777774063370575197e-01 5.306812200137799529e+00 3.753375181589343589e-03 3.730080661431522168e-03 2.824026589184210345e-01
5.530000000000000000e+03 6.783760553792393955e-01 5.303765680865682342e+00 3.762609055333104077e-03 3.739216826413955565e-03 2.826442842102770969e-01
5.535000000000000000e+03 6.789746213879542802e-01 5.300727386474597402e+00 3.771857783014526903e-03 3.748367513174072525e-03 2.828858068477535515e-01
5.540000000000000000e+03 6.795731088895813343e-01 5.297697271805743569e+00 3.781121377066926862e-03 3.757532733395181450e-03 2.831272269730051305e-01
5.545000000000000000e+03 6.801715224040123520e-01 5.294675291954676233e+00 3.790399849927876194e-03 3.766712498764517719e-03 2.833685447278849190e-01
5.550000000000000000e+03 6.807698664446780734e-01 5.291661402269745906e+00 3.799693214039220196e-03 3.775906820973250633e-03 2.836097602539435769e-01
5.555000000000000000e+03 6.813681455185826019e-01 5.288655558350495056e+00 3.809001481847120157e-03 3.785115711716541091e-03 2.838508736924290066e-01
5.560000000000000000e+03 6.819663641263247200e-01 5.285657716046147314e+00 3.818324665801918916e-03 3.794339182693410618e-03 2.840918851842857973e-01
5.565000000000000000e+03 6.825645267621379686e-01 5.282667831453995433e+00 3.827662778358349900e-03 3.803577245606950402e-03 2.843327948701552255e-01
5.570000000000000000e+03 6.831626379139092986e-01 5.279685860917903817e+00 3.837015831975346299e-03 3.812829912164138278e-03 2.845736028903741444e-01
5.575000000000000000e+03 6.837607020632133770e-01 5.276711761026754210e+00 3.846383839116178111e-03 3.822097194075979240e-03 2.848143093849752061e-01
5.580000000000000000e+03 6.843587236853395650e-01 5.273745488612934906e+00 3.855766812248339823e-03 3.831379103057399194e-03 2.850549144936861956e-01
5.585000000000000000e+03 6.849567072493212283e-01 5.270787000750797091e+00 3.865164763843710865e-03 3.840675650827405415e-03 2.852954183559298085e-01
5.590000000000000000e+03 6.855546572179606057e-01 5.267836254755176917e+00 3.874577706378406431e-03 3.849986849108950372e-03 2.855358211108228739e-01
5.595000000000000000e+03 6.861525780478584524e-01 5.264893208179896256e+00 3.884005652332823012e-03 3.859312709628975532e-03 2.857761228971765766e-01
5.600000000000000000e+03 6.867504741894423503e-01 5.261957818816252797e+00 3.893448614191722529e-03 3.868653244118498528e-03 2.860163238534957908e-01
5.605000000000000000e+03 6.873483500869885798e-01 5.259030044691567873e+00 3.902906604444116544e-03 3.878008464312504306e-03 2.862564241179787472e-01
5.610000000000000000e+03 6.879462101786563144e-01 5.256109844067684556e+00 3.912379635583358196e-03 3.887378381950048339e-03 2.864964238285168108e-01
5.615000000000000000e+03 6.885440588965094921e-01 5.253197175439539457e+00 3.921867720107107512e-03 3.896763008774213263e-03 2.867363231226940368e-01
5.620000000000000000e+03 6.891419006665429059e-01 5.250291997533685695e+00 3.931370870517337038e-03 3.906162356532129256e-03 2.869761221377871152e-01
5.625000000000000000e+03 6.897397399087071834e-01 5.247394269306867365e+00 3.940889099320317966e-03 3.915576436974960162e-03 2.872158210107647602e-01
5.630000000000000000e+03 6.903375810369419829e-01 5.244503949944555821e+00 3.950422419026687788e-03 3.925005261857976782e-03 2.874554198782876546e-01
5.635000000000000000e+03 6.909354284591905371e-01 5.241620998859558789e+00 3.959970842151375701e-03 3.934448842940488356e-03 2.876949188767081722e-01
5.640000000000000000e+03 6.915332865774332927e-01 5.238745375690574413e+00 3.969534381213655518e-03 3.943907191985893297e-03 2.879343181420699893e-01
5.645000000000000000e+03 6.921311597877085608e-01 5.235877040300794150e+00 3.979113048737119643e-03 3.953380320761670959e-03 2.881736178101079737e-01
5.650000000000000000e+03 6.927290524801386074e-01 5.233015952776503887e+00 3.988706857249716374e-03 3.962868241039407650e-03 2.884128180162477406e-01
5.655000000000000000e+03 6.933269690389538553e-01 5.230162073425685065e+00 3.998315819283697857e-03 3.972370964594759343e-03 2.886519188956057080e-01
5.660000000000000000e+03 6.939249138425185315e-01 5.227315362776630892e+00 4.007939947375683404e-03 3.981888503207517589e-03 2.888909205829888194e-01
5.665000000000000000e+03 6.945228912633532037e-01 5.224475781576567890e+00 4.017579254066648217e-03 3.991420868661600847e-03 2.891298232128939882e-01
5.670000000000000000e+03 6.951209056681606491e-01 5.221643290790293435e+00 4.027233751901912982e-03 4.000968072745048412e-03 2.893686269195083205e-01
5.675000000000000000e+03 6.957189614178427295e-01 5.218817851598834601e+00 4.036903453431094427e-03 4.010530127249976179e-03 2.896073318367088922e-01
5.680000000000000000e+03 6.963170628675355855e-01 5.215999425398047507e+00 4.046588371208257109e-03 4.020107043972735369e-03 2.898459380980620281e-01
5.685000000000000000e+03 6.969152143666204058e-01 5.213187973797335673e+00 4.056288517791723468e-03 4.029698834713722581e-03 2.900844458368239676e-01
5.690000000000000000e+03 6.975134202587570664e-01 5.210383458618259134e+00 4.066003905744273311e-03 4.039305511277585352e-03 2.903228551859401430e-01
5.695000000000000000e+03 6.981116848818981202e-01 5.207585841893255463e+00 4.075734547632984227e-03 4.048927085473069502e-03 2.905611662780450688e-01
5.700000000000000000e+03 6.987100125683152196e-01 5.204795085864292403e+00 4.085480456029296631e-03 4.058563569113085058e-03 2.907993792454622861e-01
5.705000000000000000e+03 6.993084076446248742e-01 5.202011152981559583e+00 4.095241643509093567e-03 4.068214974014790382e-03 2.910374942202043069e-01
5.710000000000000000e+03 6.999068744318029944e-01 5.199234005902180655e+00 4.105018122652559324e-03 4.077881311999456866e-03 2.912755113339725033e-01
5.715000000000000000e+03 7.005054172452117589e-01 5.196463607488910341e+00 4.114809906044262708e-03 4.087562594892557404e-03 2.915134307181566631e-01
5.720000000000000000e+03 7.011040403946213750e-01 5.193699920808841242e+00 4.124617006273190861e-03 4.097258834523803683e-03 2.917512525038352122e-01
5.725000000000000000e+03 7.017027481842305070e-01 5.190942909132131078e+00 4.134439435932698095e-03 4.106970042727095885e-03 2.919889768217751591e-01
5.730000000000000000e+03 7.023015449126863707e-01 5.188192535930736149e+00 4.144277207620512826e-03 4.116696231340539157e-03 2.922266038024315948e-01
5.735000000000000000e+03 7.029004348731058283e-01 5.185448764877154559e+00 4.154130333938725432e-03 4.126437412206433210e-03 2.924641335759480820e-01
5.740000000000000000e+03 7.034994223531008117e-01 5.182711559843134808e+00 4.163998827493905347e-03 4.136193597171393746e-03 2.927015662721564326e-01
5.745000000000000000e+03 7.040985116347918682e-01 5.179980884898483851e+00 4.173882700896911109e-03 4.145964798086165110e-03 2.929389020205762639e-01
5.750000000000000000e+03 7.046977069948361372e-01 5.177256704309765922e+00 4.183781966763094190e-03 4.155751026805833657e-03 2.931761409504155536e-01
5.755000000000000000e+03 7.052970127044417836e-01 5.174538982539121257e+00 4.193696637712141136e-03 4.165552295189669033e-03 2.934132831905701955e-01
5.760000000000000000e+03 7.058964330293894252e-01 5.171827684243017309e+00 4.203626726368176782e-03 4.175368615101230849e-03 2.936503288696241110e-01
5.765000000000000000e+03 7.064959722300538925e-01 5.169122774271030174e+00 4.213572245359705273e-03 4.185199998408319251e-03 2.938872781158490821e-01
5.770000000000000000e+03 7.070956345614244354e-01 5.166424217664635776e+00 4.223533207319683791e-03 4.195046456983049510e-03 2.941241310572048073e-01
5.775000000000000000e+03 7.076954242731207101e-01 5.163731979656017934e+00 4.233509624885434947e-03 4.204908002701768753e-03 2.943608878213389013e-01
5.780000000000000000e+03 7.082953456094157607e-01 5.161046025666855108e+00 4.243501510698729183e-03 4.214784647445141835e-03 2.945975485355870060e-01
5.785000000000000000e+03 7.088954028092543380e-01 5.158366321307141789e+00 4.253508877405776968e-03 4.224676403098150471e-03 2.948341133269724579e-01
5.790000000000000000e+03 7.094956001062695528e-01 5.155692832374019652e+00 4.263531737657143793e-03 4.234583281550008231e-03 2.950705823222066204e-01
5.795000000000000000e+03 7.100959417288049691e-01 5.153025524850582073e+00 4.273570104107862928e-03 4.244505294694278508e-03 2.953069556476886071e-01
5.800000000000000000e+03 7.106964318999313690e-01 5.150364364904717718e+00 4.283623989417420681e-03 4.254442454428869307e-03 2.955432334295056140e-01
5.805000000000000000e+03 7.112970748374698449e-01 5.147709318887945251e+00 4.293693406249711290e-03 4.264394772655983809e-03 2.957794157934328649e-01
5.810000000000000000e+03 7.118978747539987939e-01 5.145060353334290681e+00 4.303778367273023049e-03 4.274362261282117770e-03 2.960155028649331665e-01
5.815000000000000000e+03 7.124988358568868918e-01 5.142417434959086542e+00 4.313878885160148460e-03 4.284344932218167069e-03 2.962514947691578526e-01
5.820000000000000000e+03 7.130999623483006422e-01 5.139780530657888313e+00 4.323994972588288827e-03 4.294342797379343581e-03 2.964873916309460067e-01
5.825000000000000000e+03 7.137012584252251379e-01 5.137149607505316240e+00 4.334126642239082006e-03 4.304355868685203791e-03 2.967231935748251281e-01
5.830000000000000000e+03 7.143027282794834898e-01 5.134524632753930007e+00 4.344273906798615421e-03 4.314384158059658345e-03 2.969589007250105772e-01
5.835000000000000000e+03 7.149043760977528139e-01 5.131905573833125622e+00 4.354436778957453819e-03 4.324427677431018011e-03 2.971945132054062966e-01
5.840000000000000000e+03 7.155062060615831054e-01 5.129292398348004767e+00 4.364615271410586354e-03 4.334486438731934704e-03 2.974300311396043672e-01
5.845000000000000000e+03 7.161082223474121156e-01 5.126685074078292104e+00 4.374809396857468231e-03 4.344560453899447457e-03 2.976654546508854526e-01
5.850000000000000000e+03 7.167104291265833371e-01 5.124083568977236602e+00 4.385019168001998147e-03 4.354649734874972006e-03 2.979007838622187432e-01
5.855000000000000000e+03 7.173128305653634351e-01 5.121487851170502204e+00 4.395244597552553853e-03 4.364754293604329420e-03 2.981360188962618452e-01
5.860000000000000000e+03 7.179154308249621197e-01 5.118897888955100228e+00 4.405485698221973077e-03 4.374874142037736557e-03 2.983711598753613914e-01
5.865000000000000000e+03 7.185182340615408059e-01 5.116313650798316459e+00 4.415742482727543113e-03 4.385009292129798258e-03 2.986062069215527082e-01
5.870000000000000000e+03 7.191212444262384818e-01 5.113735105336622233e+00 4.426014963791051991e-03 4.395159755839568930e-03 2.988411601565600928e-01
5.875000000000000000e+03 7.197244660651822556e-01 5.111162221374631720e+00 4.436303154138752057e-03 4.405325545130504838e-03 2.990760197017969801e-01
5.880000000000000000e+03 7.203279031195027882e-01 5.108594967884041438e+00 4.446607066501340015e-03 4.415506671970462378e-03 2.993107856783658871e-01
5.885000000000000000e+03 7.209315597253576069e-01 5.106033314002559109e+00 4.456926713614041934e-03 4.425703148331782202e-03 2.995454582070588012e-01
5.890000000000000000e+03 7.215354400139373237e-01 5.103477229032889362e+00 4.467262108216517834e-03 4.435914986191195550e-03 2.997800374083572916e-01
5.895000000000000000e+03 7.221395481114883941e-01 5.100926682441680349e+00 4.477613263052943222e-03 4.446142197529907511e-03 3.000145234024323426e-01
5.900000000000000000e+03 7.227438881393276615e-01 5.098381643858488133e+00 4.487980190871974397e-03 4.456384794333579681e-03 3.002489163091450197e-01
5.905000000000000000e+03 7.233484642138553466e-01 5.095842083074769491e+00 4.498362904426734567e-03 4.466642788592298935e-03 3.004832162480460256e-01
5.910000000000000000e+03 7.239532804465739213e-01 5.093307970042841859e+00 4.508761416474887582e-03 4.476916192300668500e-03 3.007174233383765882e-01
5.915000000000000000e+03 7.245583409441003209e-01 5.090779274874886795e+00 4.519175739778563336e-03 4.487205017457740301e-03 3.009515376990679059e-01
5.920000000000000000e+03 7.251636498081809323e-01 5.088255967841950778e+00 4.529605887104349096e-03 4.497509276066996749e-03 3.011855594487418131e-01
5.925000000000000000e+03 7.257692111357141318e-01 5.085738019372908703e+00 4.540051871223440422e-03 4.507828980136516402e-03 3.014194887057107808e-01
5.930000000000000000e+03 7.263750290187510616e-01 5.083225400053531295e+00 4.550513704911413916e-03 4.518164141678746720e-03 3.016533255879782494e-01
5.935000000000000000e+03 7.269811075445247184e-01 5.080718080625428179e+00 4.560991400948457945e-03 4.528514772710734784e-03 3.018870702132385175e-01
5.940000000000000000e+03 7.275874507954565029e-01 5.078216031985129497e+00 4.571484972119186155e-03 4.538880885253952086e-03 3.021207226988772976e-01
5.945000000000000000e+03 7.281940628491742062e-01 5.075719225183061845e+00 4.581994431212818748e-03 4.549262491334469735e-03 3.023542831619718818e-01
5.950000000000000000e+03 7.288009477785207801e-01 5.073227631422618344e+00 4.592519791022967382e-03 4.559659602982758971e-03 3.025877517192908650e-01
5.955000000000000000e+03 7.294081096515802054e-01 5.070741222059156783e+00 4.603061064347898843e-03 4.570072232233943557e-03 3.028211284872951992e-01
5.960000000000000000e+03 7.300155525316768257e-01 5.068259968599084786e+00 4.613618263990281777e-03 4.580500391127563867e-03 3.030544135821376939e-01
5.965000000000000000e+03 7.306232804774016598e-01 5.065783842698874828e+00 4.624191402757382718e-03 4.590944091707771166e-03 3.032876071196634604e-01
5.970000000000000000e+03 7.312312975426225048e-01 5.063312816164128094e+00 4.634780493460981948e-03 4.601403346023239145e-03 3.035207092154104669e-01
5.975000000000000000e+03 7.318396077764938168e-01 5.060846860948648107e+00 4.645385548917368296e-03 4.611878166127176930e-03 3.037537199846093161e-01
5.980000000000000000e+03 7.324482152234755850e-01 5.058385949153489491e+00 4.656006581947367759e-03 4.622368564077350764e-03 3.039866395421836898e-01
