#[MATERIAL DEFINITION FOR MC-GPU: interaction mean free path and sampling data from PENELOPE 2006]
#[MATERIAL NAME]
# bone_20%(0.49:C_0.06:Ca_0.06:H_0.06:N_0.3:O_0.03:P)
#[NOMINAL DENSITY (g/cm^3)]
# 1.14
#[NUMBER OF DATA VALUES]
# 24001
#[MEAN FREE PATHS (cm)]
#[Energy (eV)     | Rayleigh        | Compton         | Photoelectric   | TOTAL (+pair prod) (cm) | Rayleigh: max cumul prob F^2]
5.000000000000000000e+03 1.638559523564277365e+00 8.318682257043475303e+00 1.257709380234376187e-02 1.246259235307265595e-02 2.952521010516611089e-01
5.005000000000000000e+03 1.640350039067597798e+00 8.313225055656710438e+00 1.261230133320921480e-02 1.249725258122510833e-02 2.955050412614051436e-01
5.010000000000000000e+03 1.642140273844666654e+00 8.307784341500223491e+00 1.264757370352774177e-02 1.253197550136365621e-02 2.957578226689621670e-01
5.015000000000000000e+03 1.643930233279985442e+00 8.302360040074557190e+00 1.268291097397257830e-02 1.256676116783241384e-02 2.960104456563895092e-01
5.020000000000000000e+03 1.645719922744564023e+00 8.296952077274847070e+00 1.271831320523138242e-02 1.260160963497792760e-02 2.962629106050172489e-01
5.025000000000000000e+03 1.647509347596117113e+00 8.291560379388510427e+00 1.275378045800626414e-02 1.263652095714917073e-02 2.965152178954463813e-01
5.030000000000000000e+03 1.649298513179274117e+00 8.286184873092901526e+00 1.278931279301401096e-02 1.267149518869781048e-02 2.967673679075467086e-01
5.035000000000000000e+03 1.651087424825757211e+00 8.280825485453096491e+00 1.282491027098588664e-02 1.270653238397796529e-02 2.970193610204553414e-01
5.040000000000000000e+03 1.652876087854586951e+00 8.275482143919546729e+00 1.286057295266788796e-02 1.274163259734648751e-02 2.972711976125748112e-01
5.045000000000000000e+03 1.654664507572251919e+00 8.270154776325904677e+00 1.289630089882045326e-02 1.277679588316264769e-02 2.975228780615714608e-01
5.050000000000000000e+03 1.656452689272910783e+00 8.264843310886712757e+00 1.293209417021871400e-02 1.281202229578843645e-02 2.977744027443733343e-01
5.055000000000000000e+03 1.658240638238572817e+00 8.259547676195195365e+00 1.296795282765257976e-02 1.284731188958858350e-02 2.980257720371691232e-01
5.060000000000000000e+03 1.660028359739271098e+00 8.254267801221057965e+00 1.300387693192642767e-02 1.288266471893028016e-02 2.982769863154061118e-01
5.065000000000000000e+03 1.661815859033254794e+00 8.249003615308257764e+00 1.303986654385957782e-02 1.291808083818365462e-02 2.985280459537885123e-01
5.070000000000000000e+03 1.663603141367150595e+00 8.243755048172840105e+00 1.307592172428587857e-02 1.295356030172135735e-02 2.987789513262762986e-01
5.075000000000000000e+03 1.665390211976149448e+00 8.238522029900735788e+00 1.311204253405403447e-02 1.298910316391888899e-02 2.990297028060833195e-01
5.080000000000000000e+03 1.667177076084176202e+00 8.233304490945606346e+00 1.314822903402752645e-02 1.302470947915450490e-02 2.992803007656756886e-01
5.085000000000000000e+03 1.668963738904054583e+00 8.228102362126703540e+00 1.318448128508455976e-02 1.306037930180918398e-02 2.995307455767707294e-01
5.090000000000000000e+03 1.670750205637678620e+00 8.222915574626719959e+00 1.322079934811819582e-02 1.309611268626675006e-02 2.997810376103353103e-01
5.095000000000000000e+03 1.672536481476174952e+00 8.217744059989673389e+00 1.325718328403624816e-02 1.313190968691376435e-02 3.000311772365840124e-01
5.100000000000000000e+03 1.674322571600078469e+00 8.212587750118764518e+00 1.329363315376154084e-02 1.316777035813979091e-02 3.002811648249785748e-01
5.105000000000000000e+03 1.676108481179474641e+00 8.207446577274323474e+00 1.333014901823167606e-02 1.320369475433715196e-02 3.005310007442257847e-01
5.110000000000000000e+03 1.677894215374170939e+00 8.202320474071685297e+00 1.336673093839910176e-02 1.323968292990103206e-02 3.007806853622765342e-01
5.115000000000000000e+03 1.679679779333859146e+00 8.197209373479116934e+00 1.340337897523139268e-02 1.327573493922969833e-02 3.010302190463242655e-01
5.120000000000000000e+03 1.681465178198253918e+00 8.192113208815783310e+00 1.344009318971088433e-02 1.331185083672418307e-02 3.012796021628040832e-01
5.125000000000000000e+03 1.683250417097256646e+00 8.187031913749674317e+00 1.347687364283487420e-02 1.334803067678848494e-02 3.015288350773909221e-01
5.130000000000000000e+03 1.685035501151102455e+00 8.181965422295570889e+00 1.351372039561564431e-02 1.338427451382955685e-02 3.017779181549989920e-01
5.135000000000000000e+03 1.686820435470521184e+00 8.176913668813002189e+00 1.355063350908069716e-02 1.342058240225756094e-02 3.020268517597800018e-01
5.140000000000000000e+03 1.688605225156863510e+00 8.171876588004268527e+00 1.358761304427230296e-02 1.345695439648542449e-02 3.022756362551223264e-01
5.145000000000000000e+03 1.690389875302256817e+00 8.166854114912428741e+00 1.362465906224776327e-02 1.349339055092910189e-02 3.025242720036498412e-01
5.150000000000000000e+03 1.692174390989761967e+00 8.161846184919260949e+00 1.366177162407980136e-02 1.352989092000794411e-02 3.027727593672205342e-01
5.155000000000000000e+03 1.693958777293481877e+00 8.156852733743368944e+00 1.369895079085579892e-02 1.356645555814396838e-02 3.030210987069260065e-01
5.160000000000000000e+03 1.695743039278731379e+00 8.151873697438151822e+00 1.373619662367847952e-02 1.360308451976250527e-02 3.032692903830895848e-01
5.165000000000000000e+03 1.697527182002162016e+00 8.146909012389873084e+00 1.377350918366569525e-02 1.363977785929201651e-02 3.035173347552660994e-01
5.170000000000000000e+03 1.699311210511894821e+00 8.141958615315715520e+00 1.381088853195037124e-02 1.367653563116403605e-02 3.037652321822404411e-01
5.175000000000000000e+03 1.701095129847661314e+00 8.137022443261846760e+00 1.384833472968071896e-02 1.371335788981335388e-02 3.040129830220266172e-01
5.180000000000000000e+03 1.702878945040926517e+00 8.132100433601518574e+00 1.388584783801997784e-02 1.375024468967778885e-02 3.042605876318668634e-01
5.185000000000000000e+03 1.704662661115026845e+00 8.127192524033132415e+00 1.392342791814668232e-02 1.378719608519845749e-02 3.045080463682307004e-01
5.190000000000000000e+03 1.706446283085299553e+00 8.122298652578344047e+00 1.396107503125476774e-02 1.382421213081985734e-02 3.047553595868141008e-01
5.195000000000000000e+03 1.708229815959197095e+00 8.117418757580209032e+00 1.399878923855317134e-02 1.386129288098948177e-02 3.050025276425384901e-01
5.200000000000000000e+03 1.710013264736423899e+00 8.112552777701280249e+00 1.403657060126623120e-02 1.389843839015821557e-02 3.052495508895500254e-01
5.205000000000000000e+03 1.711796634409052498e+00 8.107700651921758705e+00 1.407441918063356140e-02 1.393564871278021693e-02 3.054964296812184843e-01
5.210000000000000000e+03 1.713579929961653425e+00 8.102862319537621261e+00 1.411233503791014220e-02 1.397292390331301634e-02 3.057431643701369328e-01
5.215000000000000000e+03 1.715363156371399356e+00 8.098037720158819397e+00 1.415031823436619166e-02 1.401026401621734835e-02 3.059897553081206145e-01
5.220000000000000000e+03 1.717146318608197664e+00 8.093226793707408717e+00 1.418836883128738943e-02 1.404766910595741866e-02 3.062362028462061736e-01
5.225000000000000000e+03 1.718929421634799448e+00 8.088429480415763706e+00 1.422648688997467901e-02 1.408513922700070989e-02 3.064825073346509887e-01
5.230000000000000000e+03 1.720712470406916994e+00 8.083645720824737424e+00 1.426467247174455222e-02 1.412267443381820878e-02 3.067286691229327844e-01
5.235000000000000000e+03 1.722495469873330576e+00 8.078875455781897585e+00 1.430292563792881153e-02 1.416027478088423795e-02 3.069746885597484098e-01
5.240000000000000000e+03 1.724278424976008139e+00 8.074118626439723556e+00 1.434124644987467070e-02 1.419794032267652877e-02 3.072205659930134503e-01
5.245000000000000000e+03 1.726061340650212550e+00 8.069375174253815786e+00 1.437963496894502369e-02 1.423567111367646416e-02 3.074663017698616163e-01
5.250000000000000000e+03 1.727844221824599069e+00 8.064645040981176294e+00 1.441809125651789467e-02 1.427346720836858429e-02 3.077118962366441335e-01
5.255000000000000000e+03 1.729627073421343697e+00 8.059928168678396787e+00 1.445661537398718402e-02 1.431132866124128732e-02 3.079573497389289649e-01
5.260000000000000000e+03 1.731409900356218667e+00 8.055224499699980001e+00 1.449520738276196923e-02 1.434925552678615462e-02 3.082026626215005893e-01
5.265000000000000000e+03 1.733192707538724342e+00 8.050533976696540250e+00 1.453386734426707037e-02 1.438724785949849032e-02 3.084478352283591129e-01
5.270000000000000000e+03 1.734975499872172922e+00 8.045856542613130102e+00 1.457259531994281078e-02 1.442530571387713907e-02 3.086928679027197697e-01
5.275000000000000000e+03 1.736758282253800134e+00 8.041192140687495993e+00 1.461139137124516270e-02 1.446342914442455725e-02 3.089377609870126995e-01
5.280000000000000000e+03 1.738541059574849834e+00 8.036540714448406675e+00 1.465025555964558253e-02 1.450161820564670363e-02 3.091825148228823372e-01
5.285000000000000000e+03 1.740323836720687689e+00 8.031902207713924824e+00 1.468918794663128143e-02 1.453987295205329093e-02 3.094271297511868024e-01
5.290000000000000000e+03 1.742106618570879784e+00 8.027276564589769237e+00 1.472818859370489571e-02 1.457819343815745794e-02 3.096716061119975105e-01
5.295000000000000000e+03 1.743889409999307416e+00 8.022663729467591764e+00 1.476725756238500033e-02 1.461657971847628822e-02 3.099159442445988955e-01
5.300000000000000000e+03 1.745672215874235711e+00 8.018063647023367935e+00 1.480639491420556418e-02 1.465503184753026190e-02 3.101601444874880209e-01
5.305000000000000000e+03 1.747455041058435077e+00 8.013476262215689871e+00 1.484560071071658501e-02 1.469354987984388371e-02 3.104042071783740253e-01
5.310000000000000000e+03 1.749237890409233387e+00 8.008901520284199549e+00 1.488487501348332957e-02 1.473213386994495083e-02 3.106481326541777888e-01
5.315000000000000000e+03 1.751020768778647652e+00 8.004339366747851514e+00 1.492421788408731902e-02 1.477078387236549148e-02 3.108919212510317109e-01
5.320000000000000000e+03 1.752803681013429093e+00 7.999789747403410978e+00 1.496362938412533136e-02 1.480949994164082982e-02 3.111355733042794891e-01
5.325000000000000000e+03 1.754586631955187270e+00 7.995252608323725418e+00 1.500310957521038512e-02 1.484828213231051755e-02 3.113790891484755630e-01
5.330000000000000000e+03 1.756369626440441367e+00 7.990727895856220009e+00 1.504265851897090139e-02 1.488713049891751683e-02 3.116224691173851147e-01
5.335000000000000000e+03 1.758152669300728332e+00 7.986215556621235834e+00 1.508227627705133363e-02 1.492604509600882652e-02 3.118657135439832917e-01
5.340000000000000000e+03 1.759935765362679039e+00 7.981715537510475578e+00 1.512196291111200970e-02 1.496502597813534341e-02 3.121088227604558174e-01
5.345000000000000000e+03 1.761718919448076459e+00 7.977227785685438555e+00 1.516171848282880583e-02 1.500407319985152046e-02 3.123517970981979919e-01
5.350000000000000000e+03 1.763502136373980456e+00 7.972752248575815770e+00 1.520154305389396533e-02 1.504318681571616828e-02 3.125946368878149695e-01
5.355000000000000000e+03 1.765285420952751538e+00 7.968288873878001333e+00 1.524143668601504222e-02 1.508236688029143853e-02 3.128373424591212593e-01
5.360000000000000000e+03 1.767068777992177653e+00 7.963837609553448438e+00 1.528139944091604779e-02 1.512161344814394980e-02 3.130799141411409470e-01
5.365000000000000000e+03 1.768852212295512594e+00 7.959398403827250057e+00 1.532143138033652957e-02 1.516092657384385256e-02 3.133223522621070845e-01
5.370000000000000000e+03 1.770635728661575481e+00 7.954971205186496697e+00 1.536153256603222522e-02 1.520030631196552136e-02 3.135646571494620227e-01
5.375000000000000000e+03 1.772419331884803162e+00 7.950555962378857089e+00 1.540170305977464800e-02 1.523975271708711589e-02 3.138068291298569124e-01
5.380000000000000000e+03 1.774203026755335033e+00 7.946152624411001675e+00 1.544194292335139204e-02 1.527926584379087072e-02 3.140488685291518700e-01
5.385000000000000000e+03 1.775986818059083650e+00 7.941761140547121123e+00 1.548225221856605778e-02 1.531884574666307793e-02 3.142907756724159785e-01
5.390000000000000000e+03 1.777770710577801783e+00 7.937381460307439518e+00 1.552263100723837337e-02 1.535849248029413049e-02 3.145325508839270090e-01
5.395000000000000000e+03 1.779554709089141706e+00 7.933013533466739986e+00 1.556307935120385295e-02 1.539820609927826899e-02 3.147741944871713105e-01
5.400000000000000000e+03 1.781338818366741794e+00 7.928657310052862783e+00 1.560359731231439513e-02 1.543798665821409163e-02 3.150157068048441977e-01
5.405000000000000000e+03 1.783123043180265599e+00 7.924312740345289541e+00 1.564418495243760990e-02 1.547783421170395579e-02 3.152570881588496188e-01
5.410000000000000000e+03 1.784907388295496666e+00 7.919979774873624478e+00 1.568484233345748130e-02 1.551774881435459899e-02 3.154983388703002656e-01
5.415000000000000000e+03 1.786691858474379169e+00 7.915658364416193749e+00 1.572556951727404825e-02 1.555773052077684578e-02 3.157394592595176852e-01
5.420000000000000000e+03 1.788476458475087183e+00 7.911348459998595040e+00 1.576636656580341841e-02 1.559777938558558515e-02 3.159804496460321133e-01
5.425000000000000000e+03 1.790261193052092192e+00 7.907050012892258728e+00 1.580723354097794339e-02 1.563789546339999781e-02 3.162213103485828070e-01
5.430000000000000000e+03 1.792046066956216377e+00 7.902762974613030345e+00 1.584817050474609385e-02 1.567807880884337923e-02 3.164620416851179341e-01
5.435000000000000000e+03 1.793831084934688791e+00 7.898487296919776135e+00 1.588917751907248030e-02 1.571832947654321078e-02 3.167026439727949616e-01
5.440000000000000000e+03 1.795616251731217528e+00 7.894222931812930000e+00 1.593025464593810989e-02 1.575864752113136438e-02 3.169431175279801560e-01
5.445000000000000000e+03 1.797401572086023025e+00 7.889969831533175437e+00 1.597140194733991450e-02 1.579903299724370186e-02 3.171834626662495271e-01
5.450000000000000000e+03 1.799187050735921112e+00 7.885727948559972056e+00 1.601261948529135795e-02 1.583948595952058835e-02 3.174236797023883838e-01
5.455000000000000000e+03 1.800972692414361420e+00 7.881497235610233076e+00 1.605390732182207167e-02 1.588000646260662521e-02 3.176637689503917228e-01
5.460000000000000000e+03 1.802758501851478234e+00 7.877277645636946879e+00 1.609526551897784430e-02 1.592059456115057017e-02 3.179037307234642840e-01
5.465000000000000000e+03 1.804544483774157104e+00 7.873069131827782563e+00 1.613669413882096518e-02 1.596125030980572249e-02 3.181435653340209391e-01
5.470000000000000000e+03 1.806330642906074591e+00 7.868871647603777220e+00 1.617819324342988085e-02 1.600197376322955167e-02 3.183832730936868027e-01
5.475000000000000000e+03 1.808116983967755553e+00 7.864685146617963696e+00 1.621976289489946918e-02 1.604276497608398550e-02 3.186228543132973989e-01
5.480000000000000000e+03 1.809903511676622223e+00 7.860509582754025004e+00 1.626140315534102196e-02 1.608362400303541342e-02 3.188623093028988831e-01
5.485000000000000000e+03 1.811690230747035946e+00 7.856344910125006464e+00 1.630311408688198821e-02 1.612455089875438480e-02 3.191016383717485971e-01
5.490000000000000000e+03 1.813477145890348696e+00 7.852191083071948796e+00 1.634489575166631417e-02 1.616554571791598005e-02 3.193408418283148476e-01
5.495000000000000000e+03 1.815264261814966140e+00 7.848048056162562958e+00 1.638674821185458208e-02 1.620660851519995643e-02 3.195799199802775159e-01
5.500000000000000000e+03 1.817051583226358291e+00 7.843915784190002682e+00 1.642867152962330934e-02 1.624773934529002636e-02 3.198188731345285030e-01
5.505000000000000000e+03 1.818839114827142778e+00 7.839794222171466487e+00 1.647066576716592692e-02 1.628893826287485316e-02 3.200577015971714512e-01
5.510000000000000000e+03 1.820626861317098166e+00 7.835683325346971984e+00 1.651273098669206810e-02 1.633020532264730859e-02 3.202964056735227993e-01
5.515000000000000000e+03 1.822414827393228798e+00 7.831583049178047595e+00 1.655486725042799867e-02 1.637154057930495510e-02 3.205349856681115051e-01
5.520000000000000000e+03 1.824203017749789879e+00 7.827493349346474005e+00 1.659707462061628738e-02 1.641294408754968501e-02 3.207734418846799329e-01
5.525000000000000000e+03 1.825991437078339441e+00 7.823414181752988306e+00 1.663935315951619448e-02 1.645441590208809868e-02 3.210117746261835769e-01
5.530000000000000000e+03 1.827780090067775420e+00 7.819345502516052981e+00 1.668170292940335600e-02 1.649595607763122349e-02 3.212499841947921708e-01
5.535000000000000000e+03 1.829568981404379180e+00 7.815287267970577822e+00 1.672412399257015500e-02 1.653756466889483301e-02 3.214880708918895769e-01
5.540000000000000000e+03 1.831358115771843487e+00 7.811239434666693349e+00 1.676661641132540584e-02 1.657924173059920070e-02 3.217260350180742856e-01
5.545000000000000000e+03 1.833147497851320473e+00 7.807201959368508248e+00 1.680918024799449989e-02 1.662098731746920743e-02 3.219638768731600265e-01
5.550000000000000000e+03 1.834937132321450060e+00 7.803174799052880140e+00 1.685181556491942290e-02 1.666280148423433111e-02 3.222015967561758787e-01
5.555000000000000000e+03 1.836727023858411023e+00 7.799157910908168567e+00 1.689452242445899782e-02 1.670468428562894500e-02 3.224391949653671041e-01
5.560000000000000000e+03 1.838517177135927660e+00 7.795151252333075043e+00 1.693730088898824648e-02 1.674663577639165166e-02 3.226766717981953136e-01
5.565000000000000000e+03 1.840307596825339065e+00 7.791154780935363178e+00 1.698015102089932629e-02 1.678865601126621962e-02 3.229140275513390779e-01
5.570000000000000000e+03 1.842098287595603345e+00 7.787168454530721817e+00 1.702307288260074616e-02 1.683074504500079241e-02 3.231512625206941491e-01
5.575000000000000000e+03 1.843889254113347365e+00 7.783192231141527806e+00 1.706606653651786959e-02 1.687290293234842281e-02 3.233883770013744607e-01
5.580000000000000000e+03 1.845680501042885835e+00 7.779226068995691357e+00 1.710913204509251564e-02 1.691512972806663920e-02 3.236253712877121824e-01
5.585000000000000000e+03 1.847472033046269724e+00 7.775269926525435693e+00 1.715226947078361819e-02 1.695742548691812207e-02 3.238622456732584420e-01
5.590000000000000000e+03 1.849263854783298244e+00 7.771323762366161958e+00 1.719547887606659095e-02 1.699979026367006221e-02 3.240990004507836586e-01
5.595000000000000000e+03 1.851055970911554827e+00 7.767387535355276817e+00 1.723876032343352876e-02 1.704222411309438273e-02 3.243356359122785415e-01
5.600000000000000000e+03 1.852848386086443089e+00 7.763461204531014737e+00 1.728211387539356145e-02 1.708472708996805478e-02 3.245721523489541460e-01
5.605000000000000000e+03 1.854641104961199050e+00 7.759544729131312657e+00 1.732553959447236461e-02 1.712729924907263612e-02 3.248085500512426504e-01
5.610000000000000000e+03 1.856434132186932873e+00 7.755638068592633161e+00 1.736903754321258986e-02 1.716994064519469440e-02 3.250448293087979112e-01
5.615000000000000000e+03 1.858227472412650405e+00 7.751741182548856024e+00 1.741260778417364971e-02 1.721265133312560591e-02 3.252809904104960737e-01
5.620000000000000000e+03 1.860021130285274937e+00 7.747854030830129801e+00 1.745625037993181125e-02 1.725543136766161459e-02 3.255170336444361823e-01
5.625000000000000000e+03 1.861815110449668298e+00 7.743976573461773150e+00 1.749996539308008164e-02 1.729828080360375220e-02 3.257529592979407917e-01
5.630000000000000000e+03 1.863609417548674818e+00 7.740108770663106874e+00 1.754375288622857590e-02 1.734119969575818529e-02 3.259887676575564663e-01
5.635000000000000000e+03 1.865404056223119555e+00 7.736250582846392554e+00 1.758761292200412482e-02 1.738418809893583356e-02 3.262244590090544460e-01
5.640000000000000000e+03 1.867199031111846930e+00 7.732401970615703668e+00 1.763154556305052134e-02 1.742724606795260228e-02 3.264600336374315903e-01
5.645000000000000000e+03 1.868994346851735600e+00 7.728562894765842017e+00 1.767555087202846500e-02 1.747037365762936154e-02 3.266954918269106556e-01
5.650000000000000000e+03 1.870790008077721778e+00 7.724733316281229278e+00 1.771962891161565565e-02 1.751357092279197392e-02 3.269308338609410725e-01
5.655000000000000000e+03 1.872586019422818993e+00 7.720913196334838524e+00 1.776377974450660951e-02 1.755683791827118354e-02 3.271660600221995563e-01
5.660000000000000000e+03 1.874382385518137850e+00 7.717102496287107094e+00 1.780800343341291253e-02 1.760017469890283112e-02 3.274011705925911064e-01
5.665000000000000000e+03 1.876179110992910459e+00 7.713301177684863674e+00 1.785230004106323071e-02 1.764358131952785055e-02 3.276361658532493393e-01
5.670000000000000000e+03 1.877976200474502200e+00 7.709509202260263372e+00 1.789666963020318177e-02 1.768705783499217865e-02 3.278710460845372099e-01
5.675000000000000000e+03 1.879773658588421492e+00 7.705726531929756540e+00 1.794111226359517905e-02 1.773060430014656783e-02 3.281058115660481223e-01
5.680000000000000000e+03 1.881571489958361765e+00 7.701953128792975889e+00 1.798562800401909412e-02 1.777422076984725222e-02 3.283404625766060403e-01
5.685000000000000000e+03 1.883369699206187908e+00 7.698188955131763933e+00 1.803021691427141027e-02 1.781790729895512196e-02 3.285749993942667646e-01
5.690000000000000000e+03 1.885168290951981795e+00 7.694433973409061878e+00 1.807487905716610374e-02 1.786166394233657320e-02 3.288094222963184321e-01
5.695000000000000000e+03 1.886967269814027848e+00 7.690688146267933512e+00 1.811961449553396719e-02 1.790549075486284544e-02 3.290437315592822376e-01
5.700000000000000000e+03 1.888766640408847231e+00 7.686951436530518045e+00 1.816442329222283866e-02 1.794938779141027826e-02 3.292779274589132110e-01
5.705000000000000000e+03 1.890566407351212730e+00 7.683223807196977617e+00 1.820930551009803874e-02 1.799335510686068604e-02 3.295120102702011611e-01
5.710000000000000000e+03 1.892366575254145200e+00 7.679505221444541618e+00 1.825426121204167668e-02 1.803739275610070220e-02 3.297459802673712859e-01
5.715000000000000000e+03 1.894167148728940653e+00 7.675795642626443538e+00 1.829929046095308057e-02 1.808150079402221985e-02 3.299798377238849501e-01
5.720000000000000000e+03 1.895968132385179139e+00 7.672095034270953740e+00 1.834439331974889453e-02 1.812567927552245078e-02 3.302135829124405175e-01
5.725000000000000000e+03 1.897769530830737628e+00 7.668403360080356279e+00 1.838956985136287747e-02 1.816992825550374849e-02 3.304472161049741841e-01
5.730000000000000000e+03 1.899571348671793558e+00 7.664720583929979902e+00 1.843482011874594817e-02 1.821424778887367410e-02 3.306807375726608100e-01
5.735000000000000000e+03 1.901373590512834610e+00 7.661046669867212167e+00 1.848014418486613672e-02 1.825863793054487497e-02 3.309141475859147530e-01
5.740000000000000000e+03 1.903176260956688237e+00 7.657381582110481588e+00 1.852554211270906678e-02 1.830309873543562935e-02 3.311474464143905894e-01
5.745000000000000000e+03 1.904979364604498349e+00 7.653725285048356142e+00 1.857101396527713333e-02 1.834763025846902762e-02 3.313806343269839472e-01
5.750000000000000000e+03 1.906782906055768168e+00 7.650077743238494321e+00 1.861655980559045326e-02 1.839223255457386047e-02 3.316137115918325606e-01
5.755000000000000000e+03 1.908586889908339801e+00 7.646438921406740086e+00 1.866217969668612295e-02 1.843690567868392846e-02 3.318466784763169919e-01
5.760000000000000000e+03 1.910391320758415112e+00 7.642808784446156523e+00 1.870787370161863805e-02 1.848164968573844796e-02 3.320795352470614636e-01
5.765000000000000000e+03 1.912196203200558609e+00 7.639187297416062172e+00 1.875364188345974778e-02 1.852646463068189850e-02 3.323122821699346363e-01
5.770000000000000000e+03 1.914001541827713870e+00 7.635574425541086008e+00 1.879948430529867001e-02 1.857135056846423785e-02 3.325449195100509403e-01
5.775000000000000000e+03 1.915807341231189342e+00 7.631970134210247281e+00 1.884540103024178598e-02 1.861630755404058979e-02 3.327774475317707981e-01
5.780000000000000000e+03 1.917613606000682536e+00 7.628374388975998066e+00 1.889139212141295598e-02 1.866133564237157372e-02 3.330098664987021229e-01
5.785000000000000000e+03 1.919420340724277363e+00 7.624787155553313767e+00 1.893745764195349165e-02 1.870643488842325605e-02 3.332421766737008739e-01
5.790000000000000000e+03 1.921227549988441918e+00 7.621208399818769408e+00 1.898359765502184368e-02 1.875160534716684840e-02 3.334743783188718891e-01
5.795000000000000000e+03 1.923035238378040690e+00 7.617638087809616820e+00 1.902981222379401122e-02 1.879684707357911350e-02 3.337064716955702726e-01
5.800000000000000000e+03 1.924843410476335004e+00 7.614076185722864487e+00 1.907610141146352106e-02 1.884216012264234089e-02 3.339384570644018391e-01
5.805000000000000000e+03 1.926652070864993460e+00 7.610522659914382260e+00 1.912246528124128195e-02 1.888754454934419777e-02 3.341703346852242795e-01
5.810000000000000000e+03 1.928461224124067064e+00 7.606977476898027390e+00 1.916890389635541800e-02 1.893300040867756245e-02 3.344021048171479937e-01
5.815000000000000000e+03 1.930270874832030747e+00 7.603440603344687965e+00 1.921541732005185507e-02 1.897852775564111416e-02 3.346337677185371451e-01
5.820000000000000000e+03 1.932081027565749842e+00 7.599912006081445348e+00 1.926200561559383503e-02 1.902412664523883690e-02 3.348653236470106043e-01
5.825000000000000000e+03 1.933891686900496953e+00 7.596391652090677127e+00 1.930866884626209617e-02 1.906979713248018599e-02 3.350967728594427819e-01
5.830000000000000000e+03 1.935702857409950628e+00 7.592879508509165376e+00 1.935540707535486626e-02 1.911553927238011236e-02 3.353281156119646278e-01
5.835000000000000000e+03 1.937514543666195355e+00 7.589375542627233351e+00 1.940222036618804990e-02 1.916135311995922560e-02 3.355593521599648521e-01
5.840000000000000000e+03 1.939326750239718899e+00 7.585879721887865301e+00 1.944910878209498914e-02 1.920723873024353379e-02 3.357904827580905360e-01
5.845000000000000000e+03 1.941139481699410307e+00 7.582392013885866255e+00 1.949607238642661264e-02 1.925319615826462730e-02 3.360215076602484086e-01
5.850000000000000000e+03 1.942952742612553685e+00 7.578912386366992493e+00 1.954311124255132467e-02 1.929922545905955397e-02 3.362524271196056791e-01
5.855000000000000000e+03 1.944766537544836416e+00 7.575440807227082018e+00 1.959022541385524799e-02 1.934532668767104460e-02 3.364832413885909812e-01
5.860000000000000000e+03 1.946580871060344942e+00 7.571977244511223226e+00 1.963741496374208154e-02 1.939149989914738456e-02 3.367139507188957603e-01
5.865000000000000000e+03 1.948395747721549220e+00 7.568521666412921789e+00 1.968467995563304845e-02 1.943774514854233748e-02 3.369445553614747735e-01
5.870000000000000000e+03 1.950211172089314937e+00 7.565074041273228467e+00 1.973202045296718402e-02 1.948406249091545403e-02 3.371750555665473659e-01
5.875000000000000000e+03 1.952027148722892624e+00 7.561634337579942411e+00 1.977943651920105808e-02 1.953045198133179089e-02 3.374054515835985812e-01
5.880000000000000000e+03 1.953843682179904562e+00 7.558202523966772723e+00 1.982692821780883755e-02 1.957691367486194198e-02 3.376357436613799945e-01
5.885000000000000000e+03 1.955660777016361873e+00 7.554778569212491135e+00 1.987449561228258471e-02 1.962344762658236805e-02 3.378659320479108219e-01
5.890000000000000000e+03 1.957478437786633663e+00 7.551362442240151296e+00 1.992213876613180973e-02 1.967005389157492484e-02 3.380960169904790869e-01
5.895000000000000000e+03 1.959296669043458339e+00 7.547954112116252112e+00 1.996985774288387652e-02 1.971673252492726902e-02 3.383259987356424525e-01
5.900000000000000000e+03 1.961115475337936731e+00 7.544553548049933056e+00 2.001765260608390218e-02 1.976348358173276448e-02 3.385558775292294431e-01
5.905000000000000000e+03 1.962934861219513438e+00 7.541160719392178358e+00 2.006552341929455571e-02 1.981030711709025685e-02 3.387856536163404431e-01
5.910000000000000000e+03 1.964754831235987931e+00 7.537775595634997217e+00 2.011347024609652645e-02 1.985720318610457308e-02 3.390153272413486962e-01
5.915000000000000000e+03 1.966575389933487905e+00 7.534398146410664410e+00 2.016149315008812157e-02 1.990417184388605654e-02 3.392448986479015827e-01
5.920000000000000000e+03 1.968396541856472393e+00 7.531028341490904943e+00 2.020959219488524874e-02 1.995121314555063988e-02 3.394743680789212847e-01
5.925000000000000000e+03 1.970218291547734646e+00 7.527666150786096466e+00 2.025776744412209271e-02 1.999832714622040708e-02 3.397037357766063970e-01
5.930000000000000000e+03 1.972040643548360839e+00 7.524311544344548963e+00 2.030601896145009175e-02 2.004551390102263936e-02 3.399330019824327032e-01
5.935000000000000000e+03 1.973863602397759598e+00 7.520964492351642328e+00 2.035434681053898895e-02 2.009277346509085599e-02 3.401621669371541756e-01
5.940000000000000000e+03 1.975687172633623589e+00 7.517624965129138914e+00 2.040275105507598219e-02 2.014010589356393655e-02 3.403912308808043075e-01
5.945000000000000000e+03 1.977511358791941731e+00 7.514292933134353980e+00 2.045123175876654639e-02 2.018751124158692581e-02 3.406201940526971672e-01
5.950000000000000000e+03 1.979336165406963000e+00 7.510968366959451359e+00 2.049978898533345861e-02 2.023498956431014212e-02 3.408490566914282871e-01
5.955000000000000000e+03 1.981161597011222186e+00 7.507651237330614791e+00 2.054842279851804357e-02 2.028254091689027719e-02 3.410778190348761063e-01
5.960000000000000000e+03 1.982987658135490383e+00 7.504341515107377347e+00 2.059713326207890383e-02 2.033016535448925466e-02 3.413064813202028036e-01
5.965000000000000000e+03 1.984814353308792745e+00 7.501039171281810525e+00 2.064592043979295716e-02 2.037786293227519807e-02 3.415350437838555742e-01
5.970000000000000000e+03 1.986641687058386285e+00 7.497744176977796826e+00 2.069478439545497858e-02 2.042563370542195902e-02 3.417635066615676287e-01
5.975000000000000000e+03 1.988469663909743890e+00 7.494456503450310336e+00 2.074372519287756567e-02 2.047347772910910330e-02 3.419918701883596368e-01
5.980000000000000000e+03 1.990298288386551429e+00 7.491176122084664435e+00 2.079274289589131894e-02 2.052139505852211207e-02 3.422201345985402265e-01
