#[MATERIAL DEFINITION FOR MC-GPU: interaction mean free path and sampling data from PENELOPE 2006]
#[MATERIAL NAME]
# cartilage(0.096:H_0.099:C_0.022:N_0.744:O_0.005:Na_0.022:P_0.009:S_0.003:Cl)
#[NOMINAL DENSITY (g/cm^3)]
# 1.1
#[NUMBER OF DATA VALUES]
# 24001
#[MEAN FREE PATHS (cm)]
#[Energy (eV)     | Rayleigh        | Compton         | Photoelectric   | TOTAL (+pair prod) (cm) | Rayleigh: max cumul prob F^2]
5.000000000000000000e+03 1.617202357549729186e+00 8.307056998502401868e+00 1.863081527006328966e-02 1.837787745640444975e-02 3.374657044972913522e-01
5.005000000000000000e+03 1.618999760890808659e+00 8.301354924577561079e+00 1.868614669542013884e-02 1.843191964708930028e-02 3.377274813929755926e-01
5.010000000000000000e+03 1.620798175369402516e+00 8.295668997868734351e+00 1.874159093018949035e-02 1.848606930815776053e-02 3.379889819365850534e-01
5.015000000000000000e+03 1.622597600134800810e+00 8.289999154037763773e+00 1.879714809801409647e-02 1.854032654611379935e-02 3.382502067326281225e-01
5.020000000000000000e+03 1.624398034338306429e+00 8.284345329075664566e+00 1.885281832254806500e-02 1.859469146743317897e-02 3.385111563850525807e-01
5.025000000000000000e+03 1.626199477133230209e+00 8.278707459300605365e+00 1.890860172745641166e-02 1.864916417856300052e-02 3.387718314972384959e-01
5.030000000000000000e+03 1.628001927674896043e+00 8.273085481355796134e+00 1.896449843641587196e-02 1.870374478592235629e-02 3.390322326719920620e-01
5.035000000000000000e+03 1.629805385120612238e+00 8.267479332207511078e+00 1.902050857311402693e-02 1.875843339590149358e-02 3.392923605115394370e-01
5.040000000000000000e+03 1.631609848629686166e+00 8.261888949143024519e+00 1.907663226124996572e-02 1.881323011486237332e-02 3.395522156175205253e-01
5.045000000000000000e+03 1.633415317363389629e+00 8.256314269768672887e+00 1.913286962453357096e-02 1.886813504913791711e-02 3.398117985909825389e-01
5.050000000000000000e+03 1.635221790484972848e+00 8.250755232007810136e+00 1.918922078668592116e-02 1.892314830503236817e-02 3.400711100323738911e-01
5.055000000000000000e+03 1.637029267159646029e+00 8.245211774098839541e+00 1.924568587143933585e-02 1.897826998882121488e-02 3.403301505415383121e-01
5.060000000000000000e+03 1.638837746554570707e+00 8.239683834593305889e+00 1.930226500253686209e-02 1.903350020675070517e-02 3.405889207177089095e-01
5.065000000000000000e+03 1.640647227838862188e+00 8.234171352353884643e+00 1.935895830373279836e-02 1.908883906503827319e-02 3.408474211595018954e-01
5.070000000000000000e+03 1.642457710183559128e+00 8.228674266552513217e+00 1.941576589879213596e-02 1.914428666987191829e-02 3.411056524649111465e-01
5.075000000000000000e+03 1.644269192761638854e+00 8.223192516668428098e+00 1.947268791149092335e-02 1.919984312741051038e-02 3.413636152313019867e-01
5.080000000000000000e+03 1.646081674748004042e+00 8.217726042486285465e+00 1.952972446561608913e-02 1.925550854378358864e-02 3.416213100554057469e-01
5.085000000000000000e+03 1.647895155319462068e+00 8.212274784094272917e+00 1.958687568496534151e-02 1.931128302509116379e-02 3.418787375333138812e-01
5.090000000000000000e+03 1.649709633654730334e+00 8.206838681882244302e+00 1.964414169334712662e-02 1.936716667740368686e-02 3.421358982604726928e-01
5.095000000000000000e+03 1.651525108934420283e+00 8.201417676539847434e+00 1.970152261458063547e-02 1.942315960676188613e-02 3.423927928316770619e-01
5.100000000000000000e+03 1.653341580341039618e+00 8.196011709054657146e+00 1.975901857249593579e-02 1.947926191917697530e-02 3.426494218410658377e-01
5.105000000000000000e+03 1.655159047058973876e+00 8.190620720710395375e+00 1.981662969093364243e-02 1.953547372063014695e-02 3.429057858821158433e-01
5.110000000000000000e+03 1.656977508274482203e+00 8.185244653085073097e+00 1.987435609374496245e-02 1.959179511707265578e-02 3.431618855476364360e-01
5.115000000000000000e+03 1.658796963175697581e+00 8.179883448049167782e+00 1.993219790479196576e-02 1.964822621442597825e-02 3.434177214297646219e-01
5.120000000000000000e+03 1.660617410952605510e+00 8.174537047763879016e+00 1.999015524794705775e-02 1.970476711858124008e-02 3.436732941199593938e-01
5.125000000000000000e+03 1.662438850797043788e+00 8.169205394679320165e+00 2.004822824709317011e-02 1.976141793539935854e-02 3.439286042089966799e-01
5.130000000000000000e+03 1.664261281902691403e+00 8.163888431532756229e+00 2.010641702612373655e-02 1.981817877071097994e-02 3.441836522869642923e-01
5.135000000000000000e+03 1.666084703465077421e+00 8.158586101346820385e+00 2.016472170894289054e-02 1.987504973031654909e-02 3.444384389432567639e-01
5.140000000000000000e+03 1.667909114681546345e+00 8.153298347427826442e+00 2.022314241946491370e-02 1.993203091998580617e-02 3.446929647665702423e-01
5.145000000000000000e+03 1.669734514751264109e+00 8.148025113364015581e+00 2.028167928161442313e-02 1.998912244545782493e-02 3.449472303448974930e-01
5.150000000000000000e+03 1.671560902875223853e+00 8.142766343023788878e+00 2.034033241932679467e-02 2.004632441244142554e-02 3.452012362655232924e-01
5.155000000000000000e+03 1.673388278256210393e+00 8.137521980554101475e+00 2.039910195654716374e-02 2.010363692661411988e-02 3.454549831150192651e-01
5.160000000000000000e+03 1.675216640098817544e+00 8.132291970378689783e+00 2.045798801723135857e-02 2.016106009362296156e-02 3.457084714792389990e-01
5.165000000000000000e+03 1.677045987609428579e+00 8.127076257196417686e+00 2.051699072534525839e-02 2.021859401908388670e-02 3.459617019433137708e-01
5.170000000000000000e+03 1.678876319996212674e+00 8.121874785979604994e+00 2.057611020486501546e-02 2.027623880858182154e-02 3.462146750916473836e-01
5.175000000000000000e+03 1.680707636469118249e+00 8.116687501972378982e+00 2.063534657977691977e-02 2.033399456767057481e-02 3.464673915079117816e-01
5.180000000000000000e+03 1.682539936239858314e+00 8.111514350689040143e+00 2.069469997407731576e-02 2.039186140187260188e-02 3.467198517750423314e-01
5.185000000000000000e+03 1.684373218521915572e+00 8.106355277912390633e+00 2.075417051177265784e-02 2.044983941667908450e-02 3.469720564752334369e-01
5.190000000000000000e+03 1.686207482530530655e+00 8.101210229692135556e+00 2.081375831687974284e-02 2.050792871755004187e-02 3.472240061899338204e-01
5.195000000000000000e+03 1.688042727482688354e+00 8.096079152343293117e+00 2.087346351342497450e-02 2.056612940991359856e-02 3.474757014998425264e-01
5.200000000000000000e+03 1.689878952597118511e+00 8.090961992444565709e+00 2.093328622544491160e-02 2.062444159916643552e-02 3.477271429849042028e-01
5.205000000000000000e+03 1.691716157094282247e+00 8.085858696836766057e+00 2.099322657698611538e-02 2.068286539067356461e-02 3.479783312243047710e-01
5.210000000000000000e+03 1.693554340196381736e+00 8.080769212621236264e+00 2.105328469210503844e-02 2.074140088976823490e-02 3.482292667964674293e-01
5.215000000000000000e+03 1.695393501127326230e+00 8.075693487158298822e+00 2.111346069486787907e-02 2.080004820175165511e-02 3.484799502790483228e-01
5.220000000000000000e+03 1.697233639112744719e+00 8.070631468065679215e+00 2.117375470935085879e-02 2.085880743189322609e-02 3.487303822489322136e-01
5.225000000000000000e+03 1.699074753379979041e+00 8.065583103216990679e+00 2.123416685963980949e-02 2.091767868543014178e-02 3.489805632822285952e-01
5.230000000000000000e+03 1.700916843158065905e+00 8.060548340740172790e+00 2.129469726983054464e-02 2.097666206756759050e-02 3.492304939542676956e-01
5.235000000000000000e+03 1.702759907677737994e+00 8.055527129015999321e+00 2.135534606402843261e-02 2.103575768347835592e-02 3.494801748395961472e-01
5.240000000000000000e+03 1.704603946171419082e+00 8.050519416676552353e+00 2.141611336634856311e-02 2.109496563830288995e-02 3.497296065119733788e-01
5.245000000000000000e+03 1.706448957873211603e+00 8.045525152603710595e+00 2.147699930091590687e-02 2.115428603714944455e-02 3.499787895443675079e-01
5.250000000000000000e+03 1.708294942018889095e+00 8.040544285927714085e+00 2.153800399186463210e-02 2.121371898509330847e-02 3.502277245089516211e-01
5.255000000000000000e+03 1.710141897845902426e+00 8.035576766025602780e+00 2.159912756333902395e-02 2.127326458717764684e-02 3.504764119770997222e-01
5.260000000000000000e+03 1.711989824593347809e+00 8.030622542519836315e+00 2.166037013949239157e-02 2.133292294841240833e-02 3.507248525193834010e-01
5.265000000000000000e+03 1.713838721501989681e+00 8.025681565276775231e+00 2.172173184448784183e-02 2.139269417377500510e-02 3.509730467055677261e-01
5.270000000000000000e+03 1.715688587814235166e+00 8.020753784405249220e+00 2.178321280249796363e-02 2.145257836820993816e-02 3.512209951046076917e-01
5.275000000000000000e+03 1.717539422774136293e+00 8.015839150255128942e+00 2.184481313770481742e-02 2.151257563662873143e-02 3.514686982846447760e-01
5.280000000000000000e+03 1.719391225627373787e+00 8.010937613415904934e+00 2.190653297429970975e-02 2.157268608390968886e-02 3.517161568130032778e-01
5.285000000000000000e+03 1.721243995621266176e+00 8.006049124715238108e+00 2.196837243648357488e-02 2.163290981489814774e-02 3.519633712561867633e-01
5.290000000000000000e+03 1.723097732004742699e+00 8.001173635217606162e+00 2.203033164846630518e-02 2.169324693440582291e-02 3.522103421798744582e-01
5.295000000000000000e+03 1.724952434028360626e+00 7.996311096222834536e+00 2.209241073446759421e-02 2.175369754721152502e-02 3.524570701489181945e-01
5.300000000000000000e+03 1.726808100944275060e+00 7.991461459264796119e+00 2.215460981871588547e-02 2.181426175806012308e-02 3.527035557273388022e-01
5.305000000000000000e+03 1.728664732006258475e+00 7.986624676109933318e+00 2.221692902544941325e-02 2.187493967166346739e-02 3.529497994783226678e-01
5.310000000000000000e+03 1.730522326469661643e+00 7.981800698756000401e+00 2.227936847891491892e-02 2.193573139269909544e-02 3.531958019642187918e-01
5.315000000000000000e+03 1.732380883591448484e+00 7.976989479430587338e+00 2.234192830336910809e-02 2.199663702581160230e-02 3.534415637465351256e-01
5.320000000000000000e+03 1.734240402630144118e+00 7.972190970589888792e+00 2.240460862307704429e-02 2.205765667561095794e-02 3.536870853859357400e-01
5.325000000000000000e+03 1.736100882845875493e+00 7.967405124917245729e+00 2.246740956231359568e-02 2.211879044667396793e-02 3.539323674422376054e-01
5.330000000000000000e+03 1.737962323500319872e+00 7.962631895321931275e+00 2.253033124536203691e-02 2.218003844354274681e-02 3.541774104744073726e-01
5.335000000000000000e+03 1.739824723856736588e+00 7.957871234937730520e+00 2.259337379651512462e-02 2.224140077072576244e-02 3.544222150405581528e-01
5.340000000000000000e+03 1.741688083179943503e+00 7.953123097121681084e+00 2.265653734007453193e-02 2.230287753269723228e-02 3.546667816979470755e-01
5.345000000000000000e+03 1.743552400736297914e+00 7.948387435452774596e+00 2.271982200035059865e-02 2.236446883389678342e-02 3.549111110029716798e-01
5.350000000000000000e+03 1.745417675793728085e+00 7.943664203730615547e+00 2.278322790166309453e-02 2.242617477873017420e-02 3.551552035111674166e-01
5.355000000000000000e+03 1.747283907621680621e+00 7.938953355974206261e+00 2.284675516834001538e-02 2.248799547156803830e-02 3.553990597772044846e-01
5.360000000000000000e+03 1.749151095491159769e+00 7.934254846420581764e+00 2.291040392471889453e-02 2.254993101674714756e-02 3.556426803548852766e-01
5.365000000000000000e+03 1.751019238674683010e+00 7.929568629523637391e+00 2.297417429514553994e-02 2.261198151856902774e-02 3.558860657971411601e-01
5.370000000000000000e+03 1.752888336446306150e+00 7.924894659952780529e+00 2.303806640397498828e-02 2.267414708130095422e-02 3.561292166560302563e-01
5.375000000000000000e+03 1.754758388081592235e+00 7.920232892591757334e+00 2.310208037557059252e-02 2.273642780917491460e-02 3.563721334827342768e-01
5.380000000000000000e+03 1.756629392857619543e+00 7.915583282537363985e+00 2.316621633430464289e-02 2.279882380638819511e-02 3.566148168275558583e-01
5.385000000000000000e+03 1.758501350052975587e+00 7.910945785098216554e+00 2.323047440455809978e-02 2.286133517710303709e-02 3.568572672399163426e-01
5.390000000000000000e+03 1.760374258947754456e+00 7.906320355793535093e+00 2.329485471072069783e-02 2.292396202544671330e-02 3.570994852683528342e-01
5.395000000000000000e+03 1.762248118823531495e+00 7.901706950351936598e+00 2.335935737719048791e-02 2.298670445551097632e-02 3.573414714605156473e-01
5.400000000000000000e+03 1.764122928963386183e+00 7.897105524710203106e+00 2.342398252837444433e-02 2.304956257135265182e-02 3.575832263631658625e-01
5.405000000000000000e+03 1.765998688651869264e+00 7.892516035012120845e+00 2.348873028868762522e-02 2.311253647699271913e-02 3.578247505221729963e-01
5.410000000000000000e+03 1.767875397175018515e+00 7.887938437607233233e+00 2.355360078255403292e-02 2.317562627641708839e-02 3.580660444825122801e-01
5.415000000000000000e+03 1.769753053820341426e+00 7.883372689049697790e+00 2.361859413440596175e-02 2.323883207357594141e-02 3.583071087882624961e-01
5.420000000000000000e+03 1.771631657876809873e+00 7.878818746097099535e+00 2.368371046868410559e-02 2.330215397238373162e-02 3.585479439826034231e-01
5.425000000000000000e+03 1.773511208634862113e+00 7.874276565709278586e+00 2.374894990983766885e-02 2.336559207671928123e-02 3.587885506078138387e-01
5.430000000000000000e+03 1.775391705386389685e+00 7.869746105047182638e+00 2.381431258232422424e-02 2.342914649042556613e-02 3.590289292052687431e-01
5.435000000000000000e+03 1.777273147424731636e+00 7.865227321471699895e+00 2.387979861060948034e-02 2.349281731730940362e-02 3.592690803154377499e-01
5.440000000000000000e+03 1.779155534044679854e+00 7.860720172542513318e+00 2.394540811916785403e-02 2.355660466114199714e-02 3.595090044778822547e-01
5.445000000000000000e+03 1.781038864542452416e+00 7.856224616017004614e+00 2.401114123248149212e-02 2.362050862565789194e-02 3.597487022312536031e-01
5.450000000000000000e+03 1.782923138215714465e+00 7.851740609849047203e+00 2.407699807504124281e-02 2.368452931455587024e-02 3.599881741132909818e-01
5.455000000000000000e+03 1.784808354363554672e+00 7.847268112187965272e+00 2.414297877134602421e-02 2.374866683149827809e-02 3.602274206608193086e-01
5.460000000000000000e+03 1.786694512286478798e+00 7.842807081377378253e+00 2.420908344590273070e-02 2.381292128011091094e-02 3.604664424097469566e-01
5.465000000000000000e+03 1.788581611286420570e+00 7.838357475954088827e+00 2.427531222322670129e-02 2.387729276398333281e-02 3.607052398950639782e-01
5.470000000000000000e+03 1.790469650666719259e+00 7.833919254647017105e+00 2.434166522784112288e-02 2.394178138666830727e-02 3.609438136508401618e-01
5.475000000000000000e+03 1.792358629732122122e+00 7.829492376376080642e+00 2.440814258427738068e-02 2.400638725168204729e-02 3.611821642102227559e-01
5.480000000000000000e+03 1.794248547788783510e+00 7.825076800251109077e+00 2.447474441707498533e-02 2.407111046250411807e-02 3.614202921054349149e-01
5.485000000000000000e+03 1.796139404144245555e+00 7.820672485570801413e+00 2.454147085078117393e-02 2.413595112257692701e-02 3.616581978677736453e-01
5.490000000000000000e+03 1.798031198107441941e+00 7.816279391821624678e+00 2.460832200995125355e-02 2.420090933530607419e-02 3.618958820276079180e-01
5.495000000000000000e+03 1.799923928988705013e+00 7.811897478676734785e+00 2.467529801914887522e-02 2.426598520406048065e-02 3.621333451143770032e-01
5.500000000000000000e+03 1.801817596099731134e+00 7.807526705994999539e+00 2.474239900294479544e-02 2.433117883217121580e-02 3.623705876565888051e-01
5.505000000000000000e+03 1.803712198753604889e+00 7.803167033819846665e+00 2.480962508591839921e-02 2.439649032293285391e-02 3.626076101818175301e-01
5.510000000000000000e+03 1.805607736264772667e+00 7.798818422378294812e+00 2.487697639265644065e-02 2.446191977960220781e-02 3.628444132167028546e-01
5.515000000000000000e+03 1.807504207949055752e+00 7.794480832079901944e+00 2.494445304775378194e-02 2.452746730539897765e-02 3.630809972869475377e-01
5.520000000000000000e+03 1.809401613123623687e+00 7.790154223515728837e+00 2.501205517581275503e-02 2.459313300350509171e-02 3.633173629173161445e-01
5.525000000000000000e+03 1.811299951107010253e+00 7.785838557457327447e+00 2.507978290144360564e-02 2.465891697706510538e-02 3.635535106316332143e-01
5.530000000000000000e+03 1.813199221219094159e+00 7.781533794855718611e+00 2.514763634926421576e-02 2.472481932918577791e-02 3.637894409527820949e-01
5.535000000000000000e+03 1.815099422781104588e+00 7.777239896840391076e+00 2.521561564390031179e-02 2.479084016293633258e-02 3.640251544027029440e-01
5.540000000000000000e+03 1.817000555115606764e+00 7.772956824718299629e+00 2.528372090998501701e-02 2.485697958134787389e-02 3.642606515023913971e-01
5.545000000000000000e+03 1.818902617546502176e+00 7.768684539972876557e+00 2.535195227215921235e-02 2.492323768741372750e-02 3.644959327718972353e-01
5.550000000000000000e+03 1.820805609399018588e+00 7.764423004263040440e+00 2.542030985507118604e-02 2.498961458408901354e-02 3.647309987303227752e-01
5.555000000000000000e+03 1.822709529999721800e+00 7.760172179422191618e+00 2.548879378337715398e-02 2.505611037429112883e-02 3.649658498958213149e-01
5.560000000000000000e+03 1.824614378676477022e+00 7.755932027457307143e+00 2.555740418174021200e-02 2.512272516089863322e-02 3.652004867855963011e-01
5.565000000000000000e+03 1.826520154758487280e+00 7.751702510547882063e+00 2.562614117483155707e-02 2.518945904675236672e-02 3.654349099158993308e-01
5.570000000000000000e+03 1.828426857576251008e+00 7.747483591045038587e+00 2.569500488732948465e-02 2.525631213465449193e-02 3.656691198020292077e-01
5.575000000000000000e+03 1.830334486461578036e+00 7.743275231470532205e+00 2.576399544391978075e-02 2.532328452736871613e-02 3.659031169583306653e-01
5.580000000000000000e+03 1.832243040747574048e+00 7.739077394515839536e+00 2.583311296929543741e-02 2.539037632762004143e-02 3.661369018981929235e-01
5.585000000000000000e+03 1.834152519768650569e+00 7.734890043041162677e+00 2.590235758815718006e-02 2.545758763809517072e-02 3.663704751340486343e-01
5.590000000000000000e+03 1.836062922860504321e+00 7.730713140074533918e+00 2.597172942521276326e-02 2.552491856144175827e-02 3.666038371773724380e-01
5.595000000000000000e+03 1.837974249360114332e+00 7.726546648810894702e+00 2.604122860517712676e-02 2.559236920026853809e-02 3.668369885386802420e-01
5.600000000000000000e+03 1.839886498605752152e+00 7.722390532611115965e+00 2.611085525277279801e-02 2.565993965714563965e-02 3.670699297275276662e-01
5.605000000000000000e+03 1.841799669936954542e+00 7.718244755001149038e+00 2.618060949272907334e-02 2.572763003460370318e-02 3.673026612525090440e-01
5.610000000000000000e+03 1.843713762694540126e+00 7.714109279671059305e+00 2.625049144978290269e-02 2.579544043513475396e-02 3.675351836212565337e-01
5.615000000000000000e+03 1.845628776220593847e+00 7.709984070474148687e+00 2.632050124867810550e-02 2.586337096119129680e-02 3.677674973404387870e-01
5.620000000000000000e+03 1.847544709858461198e+00 7.705869091426038153e+00 2.639063901416570379e-02 2.593142171518663872e-02 3.679996029157600601e-01
5.625000000000000000e+03 1.849461562952741112e+00 7.701764306703814178e+00 2.646090487100356825e-02 2.599959279949445173e-02 3.682315008519593258e-01
5.630000000000000000e+03 1.851379334849300173e+00 7.697669680645064183e+00 2.653129894395712257e-02 2.606788431644941825e-02 3.684631916528091078e-01
5.635000000000000000e+03 1.853298024895243756e+00 7.693585177747072734e+00 2.660182135779834769e-02 2.613629636834623529e-02 3.686946758211147035e-01
5.640000000000000000e+03 1.855217632438925790e+00 7.689510762665896948e+00 2.667247223730645489e-02 2.620482905744008981e-02 3.689259538587131293e-01
5.645000000000000000e+03 1.857138156829939435e+00 7.685446400215512064e+00 2.674325170726755269e-02 2.627348248594646093e-02 3.691570262664725099e-01
5.650000000000000000e+03 1.859059597419112864e+00 7.681392055366943694e+00 2.681415989247463993e-02 2.634225675604087366e-02 3.693878935442908018e-01
5.655000000000000000e+03 1.860981953558505264e+00 7.677347693247411620e+00 2.688519691772755377e-02 2.641115196985891270e-02 3.696185561910953488e-01
5.660000000000000000e+03 1.862905224601402399e+00 7.673313279139464704e+00 2.695636290783308409e-02 2.648016822949620860e-02 3.698490147048418830e-01
5.665000000000000000e+03 1.864829409902319046e+00 7.669288778480135349e+00 2.702765798760496663e-02 2.654930563700841004e-02 3.700792695825138034e-01
5.670000000000000000e+03 1.866754508816982794e+00 7.665274156860099275e+00 2.709908228186366785e-02 2.661856429441086108e-02 3.703093213201213429e-01
5.675000000000000000e+03 1.868680520702326930e+00 7.661269380022855735e+00 2.717063591543604148e-02 2.668794430367830983e-02 3.705391704127011243e-01
5.680000000000000000e+03 1.870607444916509543e+00 7.657274413863847329e+00 2.724231901315628257e-02 2.675744576674568553e-02 3.707688173543150500e-01
5.685000000000000000e+03 1.872535280818878434e+00 7.653289224429689064e+00 2.731413169986481385e-02 2.682706878550693633e-02 3.709982626380499138e-01
5.690000000000000000e+03 1.874464027769995766e+00 7.649313777917290835e+00 2.738607410040910448e-02 2.689681346181588967e-02 3.712275067560167896e-01
5.695000000000000000e+03 1.876393685131607425e+00 7.645348040673095369e+00 2.745814633964297272e-02 2.696667989748538150e-02 3.714565501993501995e-01
5.700000000000000000e+03 1.878324252266654559e+00 7.641391979192236228e+00 2.753034854242684612e-02 2.703666819428754420e-02 3.716853934582075580e-01
5.705000000000000000e+03 1.880255728539274473e+00 7.637445560117717136e+00 2.760268083362803215e-02 2.710677845395396968e-02 3.719140370217687841e-01
5.710000000000000000e+03 1.882188113314773759e+00 7.633508750239650809e+00 2.767514333812005553e-02 2.717701077817500505e-02 3.721424813782356344e-01
5.715000000000000000e+03 1.884121405959645390e+00 7.629581516494439164e+00 2.774773618078301904e-02 2.724736526860002325e-02 3.723707270148311488e-01
5.720000000000000000e+03 1.886055605841557847e+00 7.625663825963976628e+00 2.782045948650367639e-02 2.731784202683750981e-02 3.725987744177991501e-01
5.725000000000000000e+03 1.887990712329349563e+00 7.621755645874875640e+00 2.789331338017518591e-02 2.738844115445468463e-02 3.728266240724039116e-01
5.730000000000000000e+03 1.889926724793023816e+00 7.617856943597693054e+00 2.796629798669702377e-02 2.745916275297738060e-02 3.730542764629294905e-01
5.735000000000000000e+03 1.891863642603740070e+00 7.613967686646143207e+00 2.803941343097489727e-02 2.753000692388996029e-02 3.732817320726793953e-01
5.740000000000000000e+03 1.893801465133829076e+00 7.610087842676314551e+00 2.811265983792138670e-02 2.760097376863577048e-02 3.735089913839764186e-01
5.745000000000000000e+03 1.895740191756759341e+00 7.606217379485946672e+00 2.818603733245473447e-02 2.767206338861599377e-02 3.737360548781616942e-01
5.750000000000000000e+03 1.897679821847166437e+00 7.602356265013606063e+00 2.825954603950015312e-02 2.774327588519081428e-02 3.739629230355949741e-01
5.755000000000000000e+03 1.899620354780817921e+00 7.598504467337991564e+00 2.833318608398868038e-02 2.781461135967829706e-02 3.741895963356538513e-01
5.760000000000000000e+03 1.901561789934625990e+00 7.594661954677155435e+00 2.840695759085759553e-02 2.788606991335465524e-02 3.744160752567337047e-01
5.765000000000000000e+03 1.903504126686639264e+00 7.590828695387742187e+00 2.848086068505054774e-02 2.795765164745438527e-02 3.746423602762470328e-01
5.770000000000000000e+03 1.905447364416047673e+00 7.587004657964274479e+00 2.855489549151739651e-02 2.802935666317000335e-02 3.748684518706237867e-01
5.775000000000000000e+03 1.907391502503156921e+00 7.583189811038401729e+00 2.862906213521384385e-02 2.810118506165171920e-02 3.750943505153105373e-01
5.780000000000000000e+03 1.909336540329408471e+00 7.579384123378169136e+00 2.870336074110204846e-02 2.817313694400778654e-02 3.753200566847706976e-01
5.785000000000000000e+03 1.911282477277365777e+00 7.575587563887284936e+00 2.877779143415013646e-02 2.824521241130421162e-02 3.755455708524840230e-01
5.790000000000000000e+03 1.913229312730698073e+00 7.571800101604416966e+00 2.885235433933209387e-02 2.831741156456439243e-02 3.757708934909464449e-01
5.795000000000000000e+03 1.915177046074195921e+00 7.568021705702447477e+00 2.892704958162808232e-02 2.838973450476944826e-02 3.759960250716700147e-01
5.800000000000000000e+03 1.917125676693758551e+00 7.564252345487774143e+00 2.900187728602429682e-02 2.846218133285803240e-02 3.762209660651829601e-01
5.805000000000000000e+03 1.919075203976396748e+00 7.560491990399591522e+00 2.907683757751299003e-02 2.853475214972625920e-02 3.764457169410292403e-01
5.810000000000000000e+03 1.921025627310203543e+00 7.556740610009214265e+00 2.915193058109187205e-02 2.860744705622709702e-02 3.766702781677681577e-01
5.815000000000000000e+03 1.922976946084393068e+00 7.552998174019322164e+00 2.922715642176511308e-02 2.868026615317123898e-02 3.768946502129753573e-01
5.820000000000000000e+03 1.924929159689256375e+00 7.549264652263316222e+00 2.930251522454236854e-02 2.875320954132614196e-02 3.771188335432416050e-01
5.825000000000000000e+03 1.926882267516178526e+00 7.545540014704601894e+00 2.937800711443929597e-02 2.882627732141645333e-02 3.773428286241733431e-01
5.830000000000000000e+03 1.928836268957631050e+00 7.541824231435906079e+00 2.945363221647720464e-02 2.889946959412359462e-02 3.775666359203925793e-01
5.835000000000000000e+03 1.930791163407169719e+00 7.538117272678588776e+00 2.952939065568337476e-02 2.897278646008601827e-02 3.777902558955369416e-01
5.840000000000000000e+03 1.932746950259429441e+00 7.534419108781960972e+00 2.960528255709081805e-02 2.904622801989896128e-02 3.780136890122594573e-01
5.845000000000000000e+03 1.934703628910117823e+00 7.530729710222630047e+00 2.968130804573822223e-02 2.911979437411421623e-02 3.782369357322289405e-01
5.850000000000000000e+03 1.936661198756003399e+00 7.527049047603817655e+00 2.975746724666969781e-02 2.919348562324002028e-02 3.784599965161297153e-01
5.855000000000000000e+03 1.938619659194935174e+00 7.523377091654682935e+00 2.983376028493526372e-02 2.926730186774121820e-02 3.786828718236619484e-01
5.860000000000000000e+03 1.940579009625823081e+00 7.519713813229665256e+00 2.991018728559071901e-02 2.934124320803931790e-02 3.789055621135415386e-01
5.865000000000000000e+03 1.942539249448626881e+00 7.516059183307844727e+00 2.998674837369697324e-02 2.941530974451158145e-02 3.791280678435005047e-01
5.870000000000000000e+03 1.944500378064374813e+00 7.512413172992254751e+00 3.006344367432102135e-02 2.948950157749207629e-02 3.793503894702868751e-01
5.875000000000000000e+03 1.946462394875139612e+00 7.508775753509254081e+00 3.014027331253515962e-02 2.956381880727075237e-02 3.795725274496647983e-01
5.880000000000000000e+03 1.948425299284038958e+00 7.505146896207894436e+00 3.021723741341694747e-02 2.963826153409336583e-02 3.797944822364149875e-01
5.885000000000000000e+03 1.950389090695246352e+00 7.501526572559233053e+00 3.029433610204993951e-02 2.971282985816213473e-02 3.800162542843347202e-01
5.890000000000000000e+03 1.952353768513964916e+00 7.497914754155740269e+00 3.037156950352263782e-02 2.978752387963470860e-02 3.802378440462380049e-01
5.895000000000000000e+03 1.954319332146439159e+00 7.494311412710648490e+00 3.044893774292916494e-02 2.986234369862465418e-02 3.804592519739559697e-01
5.900000000000000000e+03 1.956285780999950319e+00 7.490716520057308259e+00 3.052644094536916680e-02 2.993728941520142420e-02 3.806804785183369733e-01
5.905000000000000000e+03 1.958253114482802815e+00 7.487130048148587846e+00 3.060407923594727492e-02 3.001236112938970163e-02 3.809015241292467713e-01
5.910000000000000000e+03 1.960221332004336459e+00 7.483551969056220443e+00 3.068185273977390784e-02 3.008755894117012136e-02 3.811223892555691828e-01
5.915000000000000000e+03 1.962190432974904475e+00 7.479982254970219735e+00 3.075976158196442461e-02 3.016288295047838547e-02 3.813430743452059790e-01
5.920000000000000000e+03 1.964160416805883713e+00 7.476420878198248410e+00 3.083780588763933989e-02 3.023833325720547485e-02 3.815635798450771610e-01
5.925000000000000000e+03 1.966131282909672429e+00 7.472867811164981333e+00 3.091598578192506983e-02 3.031390996119826334e-02 3.817839062011216811e-01
5.930000000000000000e+03 1.968103030699665412e+00 7.469323026411562871e+00 3.099430138995229109e-02 3.038961316225781764e-02 3.820040538582974987e-01
5.935000000000000000e+03 1.970075659590283745e+00 7.465786496594922994e+00 3.107275283685768941e-02 3.046544296014115291e-02 3.822240232605820243e-01
5.940000000000000000e+03 1.972049168996940383e+00 7.462258194487255025e+00 3.115134024778252325e-02 3.054139945455967495e-02 3.824438148509723412e-01
5.945000000000000000e+03 1.974023558336062134e+00 7.458738092975349510e+00 3.123006374787372363e-02 3.061748274518021062e-02 3.826634290714858166e-01
5.950000000000000000e+03 1.975998827025054805e+00 7.455226165060072852e+00 3.130892346228245776e-02 3.069369293162362358e-02 3.828828663631603790e-01
5.955000000000000000e+03 1.977974974482344717e+00 7.451722383855697629e+00 3.138791951616597131e-02 3.077003011346645528e-02 3.831021271660550176e-01
5.960000000000000000e+03 1.979952000127325418e+00 7.448226722589397220e+00 3.146705203468569412e-02 3.084649439023905149e-02 3.833212119192500600e-01
5.965000000000000000e+03 1.981929903380391433e+00 7.444739154600608977e+00 3.154632114300850304e-02 3.092308586142674190e-02 3.835401210608478384e-01
5.970000000000000000e+03 1.983908683662920058e+00 7.441259653340472013e+00 3.162572696630617380e-02 3.099980462646927809e-02 3.837588550279730226e-01
5.975000000000000000e+03 1.985888340397265139e+00 7.437788192371261431e+00 3.170526962975531854e-02 3.107665078476062881e-02 3.839774142567731197e-01
5.980000000000000000e+03 1.987868873006764403e+00 7.434324745365816334e+00 3.178494925853754538e-02 3.115362443564914999e-02 3.841957991824189733e-01
