#[MATERIAL DEFINITION FOR MC-GPU: interaction mean free path and sampling data from PENELOPE 2006]
#[MATERIAL NAME]
# Delrin(CH2O)
#[NOMINAL DENSITY (g/cm^3)]
# 1.42
#[NUMBER OF DATA VALUES]
# 24001
#[MEAN FREE PATHS (cm)]
#[Energy (eV)     | Rayleigh        | Compton         | Photoelectric   | TOTAL (+pair prod) (cm) | Rayleigh: max cumul prob F^2]
5.000000000000000000e+03 1.471719027374767563e+00 6.569973598329593045e+00 2.159181346678496621e-02 2.121091651735801387e-02 3.438052389411995757e-01
5.005000000000000000e+03 1.473398027102855501e+00 6.565556757155505352e+00 2.165767807397005196e-02 2.127477850007645707e-02 3.440609198035979865e-01
5.010000000000000000e+03 1.475077929531509957e+00 6.561152483634314692e+00 2.172368169600754143e-02 2.133877087979010184e-02 3.443163391167369247e-01
5.015000000000000000e+03 1.476758733576033489e+00 6.556760727296850000e+00 2.178982449462213422e-02 2.140289378910220988e-02 3.445714975455910767e-01
5.020000000000000000e+03 1.478440438153357794e+00 6.552381437933399333e+00 2.185610663156615716e-02 2.146714736057122111e-02 3.448263957542225255e-01
5.025000000000000000e+03 1.480123042182035054e+00 6.548014565592091607e+00 2.192252826861904383e-02 2.153153172671003202e-02 3.450810344057755330e-01
5.030000000000000000e+03 1.481806544582240370e+00 6.543660060577229487e+00 2.198908956758822628e-02 2.159604701998680057e-02 3.453354141624715434e-01
5.035000000000000000e+03 1.483490944275754675e+00 6.539317873447733298e+00 2.205579069030816006e-02 2.166069337282388110e-02 3.455895356856049649e-01
5.040000000000000000e+03 1.485176240185963614e+00 6.534987955015498784e+00 2.212263179864104243e-02 2.172547091759837248e-02 3.458433996355382845e-01
5.045000000000000000e+03 1.486862431237840010e+00 6.530670256343863223e+00 2.218961305447603519e-02 2.179037978664126116e-02 3.460970066716970717e-01
5.050000000000000000e+03 1.488549516357942970e+00 6.526364728745998711e+00 2.225673461972964978e-02 2.185542011223768830e-02 3.463503574525657047e-01
5.055000000000000000e+03 1.490237494474415225e+00 6.522071323783340091e+00 2.232399665634587568e-02 2.192059202662693246e-02 3.466034526356828738e-01
5.060000000000000000e+03 1.491926364516959369e+00 6.517789993264088366e+00 2.239139932629547261e-02 2.198589566200161508e-02 3.468562928776369736e-01
5.065000000000000000e+03 1.493616125416850959e+00 6.513520689241609318e+00 2.245894279157669565e-02 2.205133115050829720e-02 3.471088788340617182e-01
5.070000000000000000e+03 1.495306776106909874e+00 6.509263364012968012e+00 2.252662721421453892e-02 2.211689862424659828e-02 3.473612111596319219e-01
5.075000000000000000e+03 1.496998315521508305e+00 6.505017970117359383e+00 2.259445275626121089e-02 2.218259821526956388e-02 3.476132905080587254e-01
5.080000000000000000e+03 1.498690742596558989e+00 6.500784460334636528e+00 2.266241957979586719e-02 2.224843005558327369e-02 3.478651175320859879e-01
5.085000000000000000e+03 1.500384056269504551e+00 6.496562787683812346e+00 2.273052784692455169e-02 2.231439427714667842e-02 3.481166928834857344e-01
5.090000000000000000e+03 1.502078255479311064e+00 6.492352905421575393e+00 2.279877771978010628e-02 2.238049101187136736e-02 3.483680172130540487e-01
5.095000000000000000e+03 1.503773339166460943e+00 6.488154767040827053e+00 2.286716936052214655e-02 2.244672039162145735e-02 3.486190911706069095e-01
5.100000000000000000e+03 1.505469306272953389e+00 6.483968326269186733e+00 2.293570293133728386e-02 2.251308254821367955e-02 3.488699154049764717e-01
5.105000000000000000e+03 1.507166155742281966e+00 6.479793537067592091e+00 2.300437859443864655e-02 2.257957761341675487e-02 3.491204905640066802e-01
5.110000000000000000e+03 1.508863886519437925e+00 6.475630353628830882e+00 2.307319651206595629e-02 2.264620571895142528e-02 3.493708172945496626e-01
5.115000000000000000e+03 1.510562497550908656e+00 6.471478730376098554e+00 2.314215684648591315e-02 2.271296699649064457e-02 3.496208962424616207e-01
5.120000000000000000e+03 1.512261987784653927e+00 6.467338621961621570e+00 2.321125975999142887e-02 2.277986157765873876e-02 3.498707280525994445e-01
5.125000000000000000e+03 1.513962356170108992e+00 6.463209983265215897e+00 2.328050541490199812e-02 2.284688959403164549e-02 3.501203133688161606e-01
5.130000000000000000e+03 1.515663601658174819e+00 6.459092769392904998e+00 2.334989397356349722e-02 2.291405117713658443e-02 3.503696528339581562e-01
5.135000000000000000e+03 1.517365723201223204e+00 6.454986935675509407e+00 2.341942559834856927e-02 2.298134645845235913e-02 3.506187470898607939e-01
5.140000000000000000e+03 1.519068719753068342e+00 6.450892437667302026e+00 2.348910045165588170e-02 2.304877556940844452e-02 3.508675967773450810e-01
5.145000000000000000e+03 1.520772590268969493e+00 6.446809231144633223e+00 2.355891869591036566e-02 2.311633864138515002e-02 3.511162025362141725e-01
5.150000000000000000e+03 1.522477333705638758e+00 6.442737272104528401e+00 2.362888049356367745e-02 2.318403580571393521e-02 3.513645650052497071e-01
5.155000000000000000e+03 1.524182949021205769e+00 6.438676516763417901e+00 2.369898600709305012e-02 2.325186719367619212e-02 3.516126848222084766e-01
5.160000000000000000e+03 1.525889435175235676e+00 6.434626921555733681e+00 2.376923539900236554e-02 2.331983293650411251e-02 3.518605626238188733e-01
5.165000000000000000e+03 1.527596791128711384e+00 6.430588443132608134e+00 2.383962883182142237e-02 2.338793316537991773e-02 3.521081990457777255e-01
5.170000000000000000e+03 1.529305015844028226e+00 6.426561038360549816e+00 2.391016646810615112e-02 2.345616801143591418e-02 3.523555947227468010e-01
5.175000000000000000e+03 1.531014108284987962e+00 6.422544664320128938e+00 2.398084847043848236e-02 2.352453760575425393e-02 3.526027502883496978e-01
5.180000000000000000e+03 1.532724067416788793e+00 6.418539278304704609e+00 2.405167500142620790e-02 2.359304207936666412e-02 3.528496663751682916e-01
5.185000000000000000e+03 1.534434892206025802e+00 6.414544837819094347e+00 2.412264622370308836e-02 2.366168156325447816e-02 3.530963436147401269e-01
5.190000000000000000e+03 1.536146581620684515e+00 6.410561300578303978e+00 2.419376229992903360e-02 2.373045618834863923e-02 3.533427826375548642e-01
5.195000000000000000e+03 1.537859134630123137e+00 6.406588624506279750e+00 2.426502339278936368e-02 2.379936608552887106e-02 3.535889840730512823e-01
5.200000000000000000e+03 1.539572550205077217e+00 6.402626767734618696e+00 2.433642966499534668e-02 2.386841138562410120e-02 3.538349485496144475e-01
5.205000000000000000e+03 1.541286827317648100e+00 6.398675688601326961e+00 2.440798127928398356e-02 2.393759221941212448e-02 3.540806766945723827e-01
5.210000000000000000e+03 1.543001964941305593e+00 6.394735345649560365e+00 2.447967839841801163e-02 2.400690871761946427e-02 3.543261691341935138e-01
5.215000000000000000e+03 1.544717962050865090e+00 6.390805697626409376e+00 2.455152118518558538e-02 2.407636101092098732e-02 3.545714264936836169e-01
5.220000000000000000e+03 1.546434817622495128e+00 6.386886703481652106e+00 2.462350980240065115e-02 2.414594922994008075e-02 3.548164493971828759e-01
5.225000000000000000e+03 1.548152530633707613e+00 6.382978322366551716e+00 2.469564441290248921e-02 2.421567350524817669e-02 3.550612384677631073e-01
5.230000000000000000e+03 1.549871100063350493e+00 6.379080513632622740e+00 2.476792517955609882e-02 2.428553396736486680e-02 3.553057943274252617e-01
5.235000000000000000e+03 1.551590524891601763e+00 6.375193236830460464e+00 2.484035226525168824e-02 2.435553074675747207e-02 3.555501175970965377e-01
5.240000000000000000e+03 1.553310804099963693e+00 6.371316451708524120e+00 2.491292583290488638e-02 2.442566397384095950e-02 3.557942088966274952e-01
5.245000000000000000e+03 1.555031936671260828e+00 6.367450118211952059e+00 2.498564604545691625e-02 2.449593377897810176e-02 3.560380688447898345e-01
5.250000000000000000e+03 1.556753921589621781e+00 6.363594196481410670e+00 2.505851306587382823e-02 2.456634029247849876e-02 3.562816980592737326e-01
5.255000000000000000e+03 1.558476757840493887e+00 6.359748646851883791e+00 2.513152705714741600e-02 2.463688364459950403e-02 3.565250971566849003e-01
5.260000000000000000e+03 1.560200444410610787e+00 6.355913429851565155e+00 2.520468818229416874e-02 2.470756396554493403e-02 3.567682667525426954e-01
5.265000000000000000e+03 1.561924980288010856e+00 6.352088506200664675e+00 2.527799660435597548e-02 2.477838138546571353e-02 3.570112074612773467e-01
5.270000000000000000e+03 1.563650364462019882e+00 6.348273836810276904e+00 2.535145248639983709e-02 2.484933603445945230e-02 3.572539198962274010e-01
5.275000000000000000e+03 1.565376595923246406e+00 6.344469382781252165e+00 2.542505599151782120e-02 2.492042804257028552e-02 3.574964046696377795e-01
5.280000000000000000e+03 1.567103673663575503e+00 6.340675105403063228e+00 2.549880728282682280e-02 2.499165753978850602e-02 3.577386623926571141e-01
5.285000000000000000e+03 1.568831596676166340e+00 6.336890966152687987e+00 2.557270652346893894e-02 2.506302465605083143e-02 3.579806936753355817e-01
5.290000000000000000e+03 1.570560363955438188e+00 6.333116926693508120e+00 2.564675387661077138e-02 2.513452952123957501e-02 3.582224991266226843e-01
5.295000000000000000e+03 1.572289974497081300e+00 6.329352948874167772e+00 2.572094950544430089e-02 2.520617226518341233e-02 3.584640793543650839e-01
5.300000000000000000e+03 1.574020427298028713e+00 6.325598994727536173e+00 2.579529357318573538e-02 2.527795301765609765e-02 3.587054349653042706e-01
5.305000000000000000e+03 1.575751721356476009e+00 6.321855026469554772e+00 2.586978624307671379e-02 2.534987190837753590e-02 3.589465665650746762e-01
5.310000000000000000e+03 1.577483855671847568e+00 6.318121006498224723e+00 2.594442767838273448e-02 2.542192906701213478e-02 3.591874747582014527e-01
5.315000000000000000e+03 1.579216829244823872e+00 6.314396897392449581e+00 2.601921804239494193e-02 2.549412462317040759e-02 3.594281601480983634e-01
5.320000000000000000e+03 1.580950641077297769e+00 6.310682661911070745e+00 2.609415749842811452e-02 2.556645870640691237e-02 3.596686233370659513e-01
5.325000000000000000e+03 1.582685290172412440e+00 6.306978262991703055e+00 2.616924620982251370e-02 2.563893144622191034e-02 3.599088649262895956e-01
5.330000000000000000e+03 1.584420775534512549e+00 6.303283663749777332e+00 2.624448433994210766e-02 2.571154297205953052e-02 3.601488855158374580e-01
5.335000000000000000e+03 1.586157096169171998e+00 6.299598827477429275e+00 2.631987205217591400e-02 2.578429341330894242e-02 3.603886857046584291e-01
5.340000000000000000e+03 1.587894251083177721e+00 6.295923717642490480e+00 2.639540950993724336e-02 2.585718289930350605e-02 3.606282660905807957e-01
5.345000000000000000e+03 1.589632239284508808e+00 6.292258297887474150e+00 2.647109687666346009e-02 2.593021155932041452e-02 3.608676272703100207e-01
5.350000000000000000e+03 1.591371059782365149e+00 6.288602532028507497e+00 2.654693431581689120e-02 2.600337952258144000e-02 3.611067698394269665e-01
5.355000000000000000e+03 1.593110711587122363e+00 6.284956384054381395e+00 2.662292199088332756e-02 2.607668691825142451e-02 3.613456943923864517e-01
5.360000000000000000e+03 1.594851193710365544e+00 6.281319818125459697e+00 2.669906006537365109e-02 2.615013387543960871e-02 3.615844015225152530e-01
5.365000000000000000e+03 1.596592505164849518e+00 6.277692798572763522e+00 2.677534870282224574e-02 2.622372052319809493e-02 3.618228918220105506e-01
5.370000000000000000e+03 1.598334644964523044e+00 6.274075289896908103e+00 2.685178806678824651e-02 2.629744699052287069e-02 3.620611658819385403e-01
5.375000000000000000e+03 1.600077612124500170e+00 6.270467256767162212e+00 2.692837832085427652e-02 2.637131340635245208e-02 3.622992242922322692e-01
5.380000000000000000e+03 1.601821405661067788e+00 6.266868664020444513e+00 2.700511962862734219e-02 2.644531989956871651e-02 3.625370676416906912e-01
5.385000000000000000e+03 1.603566024591680295e+00 6.263279476660351008e+00 2.708201215373842730e-02 2.651946659899624345e-02 3.627746965179767802e-01
5.390000000000000000e+03 1.605311467934955827e+00 6.259699659856184262e+00 2.715905605984260049e-02 2.659375363340243936e-02 3.630121115076163640e-01
5.395000000000000000e+03 1.607057734710658270e+00 6.256129178942013702e+00 2.723625151061855390e-02 2.666818113149685074e-02 3.632493131959960708e-01
5.400000000000000000e+03 1.608804823939713691e+00 6.252567999415690636e+00 2.731359866976918946e-02 2.674274922193169493e-02 3.634863021673627181e-01
5.405000000000000000e+03 1.610552734644181472e+00 6.249016086937938752e+00 2.739109770102073071e-02 2.681745803330084360e-02 3.637230790048212592e-01
5.410000000000000000e+03 1.612301465847272519e+00 6.245473407331372684e+00 2.746874876812367694e-02 2.689230769414061376e-02 3.639596442903338391e-01
5.415000000000000000e+03 1.614051016573329500e+00 6.241939926579584963e+00 2.754655203485202250e-02 2.696729833292890732e-02 3.641959986047183517e-01
5.420000000000000000e+03 1.615801385847823957e+00 6.238415610826224089e+00 2.762450766500341992e-02 2.704243007808523544e-02 3.644321425276471071e-01
5.425000000000000000e+03 1.617552572697358082e+00 6.234900426374051285e+00 2.770261582239926662e-02 2.711770305797065600e-02 3.646680766376457217e-01
5.430000000000000000e+03 1.619304576149656505e+00 6.231394339684042549e+00 2.778087667088451410e-02 2.719311740088755161e-02 3.649038015120916745e-01
5.435000000000000000e+03 1.621057395233554521e+00 6.227897317374478270e+00 2.785929037432746669e-02 2.726867323507922020e-02 3.651393177272134749e-01
5.440000000000000000e+03 1.622811028979009862e+00 6.224409326220020411e+00 2.793785709662039915e-02 2.734437068873033991e-02 3.653746258580891082e-01
5.445000000000000000e+03 1.624565476417075605e+00 6.220930333150853642e+00 2.801657700167833540e-02 2.742020988996578951e-02 3.656097264786453138e-01
5.450000000000000000e+03 1.626320736579919490e+00 6.217460305251743868e+00 2.809545025344032526e-02 2.749619096685160247e-02 3.658446201616561422e-01
5.455000000000000000e+03 1.628076808500804384e+00 6.213999209761197129e+00 2.817447701586856673e-02 2.757231404739411348e-02 3.660793074787422885e-01
5.460000000000000000e+03 1.629833691214081393e+00 6.210547014070561644e+00 2.825365745294838166e-02 2.764857925953975032e-02 3.663137890003696495e-01
5.465000000000000000e+03 1.631591383755200741e+00 6.207103685723148523e+00 2.833299172868868065e-02 2.772498673117538420e-02 3.665480652958486019e-01
5.470000000000000000e+03 1.633349885160690906e+00 6.203669192413380884e+00 2.841248000712134208e-02 2.780153659012758391e-02 3.667821369333331694e-01
5.475000000000000000e+03 1.635109194468163718e+00 6.200243501985922556e+00 2.849212245230153123e-02 2.787822896416282739e-02 3.670160044798196353e-01
5.480000000000000000e+03 1.636869310716311032e+00 6.196826582434812103e+00 2.857191922830766215e-02 2.795506398098733178e-02 3.672496685011460427e-01
5.485000000000000000e+03 1.638630232944888743e+00 6.193418401902642145e+00 2.865187049924095009e-02 2.803204176824647051e-02 3.674831295619912508e-01
5.490000000000000000e+03 1.640391960194720333e+00 6.190018928679698718e+00 2.873197642922568906e-02 2.810916245352496762e-02 3.677163882258739913e-01
5.495000000000000000e+03 1.642154491507705760e+00 6.186628131203093517e+00 2.881223718240969942e-02 2.818642616434717876e-02 3.679494450551520912e-01
5.500000000000000000e+03 1.643917825926785037e+00 6.183245978056001846e+00 2.889265292296280818e-02 2.826383302817548140e-02 3.681823006110219176e-01
5.505000000000000000e+03 1.645681962495968431e+00 6.179872437966758447e+00 2.897322381507864975e-02 2.834138317241192626e-02 3.684149554535171012e-01
5.510000000000000000e+03 1.647446900260306712e+00 6.176507479808088341e+00 2.905395002297313581e-02 2.841907672439662053e-02 3.686474101415083138e-01
5.515000000000000000e+03 1.649212638265903585e+00 6.173151072596266609e+00 2.913483171088537133e-02 2.849691381140848426e-02 3.688796652327024916e-01
5.520000000000000000e+03 1.650979175559897483e+00 6.169803185490319919e+00 2.921586904307685306e-02 2.857489456066433439e-02 3.691117212836420580e-01
5.525000000000000000e+03 1.652746511190469336e+00 6.166463787791207629e+00 2.929706218383206287e-02 2.865301909931938784e-02 3.693435788497041461e-01
5.530000000000000000e+03 1.654514644206831697e+00 6.163132848941037523e+00 2.937841129745805829e-02 2.873128755446668556e-02 3.695752384851002659e-01
5.535000000000000000e+03 1.656283573659229624e+00 6.159810338522256679e+00 2.945991654828462522e-02 2.880970005313714805e-02 3.698067007428757491e-01
5.540000000000000000e+03 1.658053298598930470e+00 6.156496226256868987e+00 2.954157810066405238e-02 2.888825672229923189e-02 3.700379661749088056e-01
5.545000000000000000e+03 1.659823818078222990e+00 6.153190482005657103e+00 2.962339611897121458e-02 2.896695768885886382e-02 3.702690353319104677e-01
5.550000000000000000e+03 1.661595131150412019e+00 6.149893075767392858e+00 2.970537076760333337e-02 2.904580307965910074e-02 3.704999087634237576e-01
5.555000000000000000e+03 1.663367236869824017e+00 6.146603977678059216e+00 2.978750221098055637e-02 2.912479302148057378e-02 3.707305870178233542e-01
5.560000000000000000e+03 1.665140134291778207e+00 6.143323158010114859e+00 2.986979061354465281e-02 2.920392764104010400e-02 3.709610706423152049e-01
5.565000000000000000e+03 1.666913822472616769e+00 6.140050587171674401e+00 2.995223613976053662e-02 2.928320706499199649e-02 3.711913601829359699e-01
5.570000000000000000e+03 1.668688300469672425e+00 6.136786235705805836e+00 3.003483895411504512e-02 2.936263141992682957e-02 3.714214561845526341e-01
5.575000000000000000e+03 1.670463567341277988e+00 6.133530074289742728e+00 3.011759922111738319e-02 2.944220083237168370e-02 3.716513591908622294e-01
5.580000000000000000e+03 1.672239622146755700e+00 6.130282073734155013e+00 3.020051710529869302e-02 2.952191542878962460e-02 3.718810697443915569e-01
5.585000000000000000e+03 1.674016463946427891e+00 6.127042204982380724e+00 3.028359277121296309e-02 2.960177533558045956e-02 3.721105883864966324e-01
5.590000000000000000e+03 1.675794091801593666e+00 6.123810439109712789e+00 3.036682638343579654e-02 2.968178067907945375e-02 3.723399156573625746e-01
5.595000000000000000e+03 1.677572504774533124e+00 6.120586747322660059e+00 3.045021810656491426e-02 2.976193158555759735e-02 3.725690520960033281e-01
5.600000000000000000e+03 1.679351701928512020e+00 6.117371100958207464e+00 3.053376810522041504e-02 2.984222818122186580e-02 3.727979982402613301e-01
5.605000000000000000e+03 1.681131682327761112e+00 6.114163471483103685e+00 3.061747654404393948e-02 2.992267059221416156e-02 3.730267546268073442e-01
5.610000000000000000e+03 1.682912445037489269e+00 6.110963830493127524e+00 3.070134358769957203e-02 3.000325894461214338e-02 3.732553217911404042e-01
5.615000000000000000e+03 1.684693989123871471e+00 6.107772149712386245e+00 3.078536940087311588e-02 3.008399336442837968e-02 3.734837002675873707e-01
5.620000000000000000e+03 1.686476313654043047e+00 6.104588400992604136e+00 3.086955414827224214e-02 3.016487397761033820e-02 3.737118905893028753e-01
5.625000000000000000e+03 1.688259417696093001e+00 6.101412556312419966e+00 3.095389799462622618e-02 3.024590091004004250e-02 3.739398932882694870e-01
5.630000000000000000e+03 1.690043300319081343e+00 6.098244587776664005e+00 3.103840110468671434e-02 3.032707428753467910e-02 3.741677088952972130e-01
5.635000000000000000e+03 1.691827960593007996e+00 6.095084467615691004e+00 3.112306364322659294e-02 3.040839423584536585e-02 3.743953379400234982e-01
5.640000000000000000e+03 1.693613397588825675e+00 6.091932168184672314e+00 3.120788577504063008e-02 3.048986088065766889e-02 3.746227809509134477e-01
5.645000000000000000e+03 1.695399610378430344e+00 6.088787661962913766e+00 3.129286766494530914e-02 3.057147434759128687e-02 3.748500384552596043e-01
5.650000000000000000e+03 1.697186598034660321e+00 6.085650921553174442e+00 3.137800947777860672e-02 3.065323476219976653e-02 3.750771109791817826e-01
5.655000000000000000e+03 1.698974359631290731e+00 6.082521919680980993e+00 3.146331137840004816e-02 3.073514224997036040e-02 3.753039990476273458e-01
5.660000000000000000e+03 1.700762894243029066e+00 6.079400629193965067e+00 3.154877353169074916e-02 3.081719693632397478e-02 3.755307031843713172e-01
5.665000000000000000e+03 1.702552200945522065e+00 6.076287023061175852e+00 3.163439610255352336e-02 3.089939894661517666e-02 3.757572239120159363e-01
5.670000000000000000e+03 1.704342278815337508e+00 6.073181074372431709e+00 3.172017925591248677e-02 3.098174840613162132e-02 3.759835617519913242e-01
5.675000000000000000e+03 1.706133126929960664e+00 6.070082756337670915e+00 3.180612315671271784e-02 3.106424544009369140e-02 3.762097172245553178e-01
5.680000000000000000e+03 1.707924744367811165e+00 6.066992042286247333e+00 3.189222796992141618e-02 3.114689017365538867e-02 3.764356908487934694e-01
5.685000000000000000e+03 1.709717130208211922e+00 6.063908905666338001e+00 3.197849386052644544e-02 3.122968273190286290e-02 3.766614831426194909e-01
5.690000000000000000e+03 1.711510283531412213e+00 6.060833320044242356e+00 3.206492099353745046e-02 3.131262323985533474e-02 3.768870946227752539e-01
5.695000000000000000e+03 1.713304203418561489e+00 6.057765259103784494e+00 3.215150953398498296e-02 3.139571182246420067e-02 3.771125258048308448e-01
5.700000000000000000e+03 1.715098888951716027e+00 6.054704696645642592e+00 3.223825964692062646e-02 3.147894860461290800e-02 3.773377772031851207e-01
5.705000000000000000e+03 1.716894339213846710e+00 6.051651606586708532e+00 3.232517149741767626e-02 3.156233371111756558e-02 3.775628493310655975e-01
5.710000000000000000e+03 1.718690553288810152e+00 6.048605962959491045e+00 3.241224525057000844e-02 3.164586726672571904e-02 3.777877427005288946e-01
5.715000000000000000e+03 1.720487530261368470e+00 6.045567739911458460e+00 3.249948107149263493e-02 3.172954939611677405e-02 3.780124578224609566e-01
5.720000000000000000e+03 1.722285269217175285e+00 6.042536911704419644e+00 3.258687912532184233e-02 3.181338022390191311e-02 3.782369952065772756e-01
5.725000000000000000e+03 1.724083769242776620e+00 6.039513452713906716e+00 3.267443957721472003e-02 3.189735987462363753e-02 3.784613553614233905e-01
5.730000000000000000e+03 1.725883029425603565e+00 6.036497337428573751e+00 3.276216259234927819e-02 3.198148847275571194e-02 3.786855387943748874e-01
5.735000000000000000e+03 1.727683048853965619e+00 6.033488540449571502e+00 3.285004833592417711e-02 3.206576614270272019e-02 3.789095460116381209e-01
5.740000000000000000e+03 1.729483826617065789e+00 6.030487036489923014e+00 3.293809697315952523e-02 3.215019300880079395e-02 3.791333775182503807e-01
5.745000000000000000e+03 1.731285361804968836e+00 6.027492800373969395e+00 3.302630866929542192e-02 3.223476919531601675e-02 3.793570338180801138e-01
5.750000000000000000e+03 1.733087653508631032e+00 6.024505807036703686e+00 3.311468358959359509e-02 3.231949482644592281e-02 3.795805154138277571e-01
5.755000000000000000e+03 1.734890700819867071e+00 6.021526031523232625e+00 3.320322189933590934e-02 3.240437002631788715e-02 3.798038228070257927e-01
5.760000000000000000e+03 1.736694502831362730e+00 6.018553448988162025e+00 3.329192376382487939e-02 3.248939491898958365e-02 3.800269564980393588e-01
5.765000000000000000e+03 1.738499058636667538e+00 6.015588034694996367e+00 3.338078934838390605e-02 3.257456962844895720e-02 3.802499169860665829e-01
5.770000000000000000e+03 1.740304367330200108e+00 6.012629764015571254e+00 3.346981881835697087e-02 3.265989427861390459e-02 3.804727047691393027e-01
5.775000000000000000e+03 1.742110428007227929e+00 6.009678612429473432e+00 3.355901233910838638e-02 3.274536899333185119e-02 3.806953203441231226e-01
5.780000000000000000e+03 1.743917239763882243e+00 6.006734555523441266e+00 3.364837007602308749e-02 3.283099389637997995e-02 3.809177642067186342e-01
5.785000000000000000e+03 1.745724801697144724e+00 6.003797568990815847e+00 3.373789219450666621e-02 3.291676911146501627e-02 3.811400368514611392e-01
5.790000000000000000e+03 1.747533112904843255e+00 6.000867628630963679e+00 3.382757885998471936e-02 3.300269476222260356e-02 3.813621387717217037e-01
5.795000000000000000e+03 1.749342172485655045e+00 5.997944710348706465e+00 3.391743023790343842e-02 3.308877097221764318e-02 3.815840704597076583e-01
5.800000000000000000e+03 1.751151979539100845e+00 5.995028790153758891e+00 3.400744649372940825e-02 3.317499786494405856e-02 3.818058324064630416e-01
5.805000000000000000e+03 1.752962533165549397e+00 5.992119844160157527e+00 3.409762779294967655e-02 3.326137556382464944e-02 3.820274251018693779e-01
5.810000000000000000e+03 1.754773832466189676e+00 5.989217848585747461e+00 3.418797430107087948e-02 3.334790419221021068e-02 3.822488490346460099e-01
5.815000000000000000e+03 1.756585876543065972e+00 5.986322779751570344e+00 3.427848618362060867e-02 3.343458387338067717e-02 3.824701046923510983e-01
5.820000000000000000e+03 1.758398664499040587e+00 5.983434614081360792e+00 3.436916360614618304e-02 3.352141473054376375e-02 3.826911925613820098e-01
5.825000000000000000e+03 1.760212195437809379e+00 5.980553328100983279e+00 3.446000673421518307e-02 3.360839688683550652e-02 3.829121131269761502e-01
5.830000000000000000e+03 1.762026468463892881e+00 5.977678898437893018e+00 3.455101573341514548e-02 3.369553046531962442e-02 3.831328668732114084e-01
5.835000000000000000e+03 1.763841482682640738e+00 5.974811301820597720e+00 3.464219076935386166e-02 3.378281558898790782e-02 3.833534542830072112e-01
5.840000000000000000e+03 1.765657237200219276e+00 5.971950515078110477e+00 3.473353200765907922e-02 3.387025238075962869e-02 3.835738758381248004e-01
5.845000000000000000e+03 1.767473731123616387e+00 5.969096515139440839e+00 3.482503961397855063e-02 3.395784096348156839e-02 3.837941320191683436e-01
5.850000000000000000e+03 1.769290963560621988e+00 5.966249279033059238e+00 3.491671375397951277e-02 3.404558145992730989e-02 3.840142233055854892e-01
5.855000000000000000e+03 1.771108933619853332e+00 5.963408783886357867e+00 3.500855459334950570e-02 3.413347399279799410e-02 3.842341501756681432e-01
5.860000000000000000e+03 1.772927640410732808e+00 5.960575006925132868e+00 3.510056229779597720e-02 3.422151868472170927e-02 3.844539131065532467e-01
5.865000000000000000e+03 1.774747083043483942e+00 5.957747925473088735e+00 3.519273703304568596e-02 3.430971565825285952e-02 3.846735125742236638e-01
5.870000000000000000e+03 1.776567260629143608e+00 5.954927516951286748e+00 3.528507896484574247e-02 3.439806503587303915e-02 3.848929490535089037e-01
5.875000000000000000e+03 1.778388172279543600e+00 5.952113758877660032e+00 3.537758825896257509e-02 3.448656693998985306e-02 3.851122230180857864e-01
5.880000000000000000e+03 1.780209817107311965e+00 5.949306628866499302e+00 3.547026508118220067e-02 3.457522149293711100e-02 3.853313349404796639e-01
5.885000000000000000e+03 1.782032194225882771e+00 5.946506104627929723e+00 3.556310959731075888e-02 3.466402881697518146e-02 3.855502852920648649e-01
5.890000000000000000e+03 1.783855302749473903e+00 5.943712163967437512e+00 3.565612197317342968e-02 3.475298903428987451e-02 3.857690745430658597e-01
5.895000000000000000e+03 1.785679141793094837e+00 5.940924784785347690e+00 3.574930237461513421e-02 3.484210226699289981e-02 3.859877031625579269e-01
5.900000000000000000e+03 1.787503710472549745e+00 5.938143945076331143e+00 3.584265096750052781e-02 3.493136863712181794e-02 3.862061716184680416e-01
5.905000000000000000e+03 1.789329007904419289e+00 5.935369622928922340e+00 3.593616791771325064e-02 3.502078826663912459e-02 3.864244803775760406e-01
5.910000000000000000e+03 1.791155033206075942e+00 5.932601796525009519e+00 3.602985339115694075e-02 3.511036127743318719e-02 3.866426299055152893e-01
5.915000000000000000e+03 1.792981785495664004e+00 5.929840444139369282e+00 3.612370755375422099e-02 3.520008779131700294e-02 3.868606206667736802e-01
5.920000000000000000e+03 1.794809263892108042e+00 5.927085544139177209e+00 3.621773057144688640e-02 3.528996793002843468e-02 3.870784531246945215e-01
5.925000000000000000e+03 1.796637467515115771e+00 5.924337074983497153e+00 3.631192261019679235e-02 3.538000181523079379e-02 3.872961277414777026e-01
5.930000000000000000e+03 1.798466395485150304e+00 5.921595015222859359e+00 3.640628383598402962e-02 3.547018956851098054e-02 3.875136449781804160e-01
5.935000000000000000e+03 1.800296046923463678e+00 5.918859343498724890e+00 3.650081441480888117e-02 3.556053131138128820e-02 3.877310052947183228e-01
5.940000000000000000e+03 1.802126420952059327e+00 5.916130038543059300e+00 3.659551451269003192e-02 3.565102716527755733e-02 3.879482091498663299e-01
5.945000000000000000e+03 1.803957516693721397e+00 5.913407079177827264e+00 3.669038429566602588e-02 3.574167725156038311e-02 3.881652570012599224e-01
5.950000000000000000e+03 1.805789333271975661e+00 5.910690444314572467e+00 3.678542392979355230e-02 3.583248169151339452e-02 3.883821493053958851e-01
5.955000000000000000e+03 1.807621869811133486e+00 5.907980112953884699e+00 3.688063358114958973e-02 3.592344060634518332e-02 3.885988865176335239e-01
5.960000000000000000e+03 1.809455125436241207e+00 5.905276064185014384e+00 3.697601341582887335e-02 3.601455411718669508e-02 3.888154690921956647e-01
5.965000000000000000e+03 1.811289099273113212e+00 5.902578277185361877e+00 3.707156359994596972e-02 3.610582234509319977e-02 3.890318974821695419e-01
5.970000000000000000e+03 1.813123790448313954e+00 5.899886731220035152e+00 3.716728429963418734e-02 3.619724541104300808e-02 3.892481721395081862e-01
5.975000000000000000e+03 1.814959198089155512e+00 5.897201405641410155e+00 3.726317568104554889e-02 3.628882343593734655e-02 3.894642935150314234e-01
5.980000000000000000e+03 1.816795321323700918e+00 5.894522279888672500e+00 3.735923791035108965e-02 3.638055654060057265e-02 3.896802620584265409e-01
