#[MATERIAL DEFINITION FOR MC-GPU: interaction mean free path and sampling data from PENELOPE 2006]
#[MATERIAL NAME]
# LDPE(C2H4)
#[NOMINAL DENSITY (g/cm^3)]
# 0.92
#[NUMBER OF DATA VALUES]
# 24001
#[MEAN FREE PATHS (cm)]
#[Energy (eV)     | Rayleigh        | Compton         | Photoelectric   | TOTAL (+pair prod) (cm) | Rayleigh: max cumul prob F^2]
5.000000000000000000e+03 3.403727602484472037e+00 8.379428957701726688e+00 6.802185162128965290e-02 6.616253640341887565e-02 3.348317028654869132e-01
5.005000000000000000e+03 3.407645472876196902e+00 8.374826072930767751e+00 6.823400663831602486e-02 6.636443348514402263e-02 3.350803162534425339e-01
5.010000000000000000e+03 3.411564513890644967e+00 8.370236454930495285e+00 6.844662137628043652e-02 6.656674326022510302e-02 3.353288016426290707e-01
5.015000000000000000e+03 3.415484722167044129e+00 8.365660049358954353e+00 6.865969640204114266e-02 6.676946612264303416e-02 3.355771596065906803e-01
5.020000000000000000e+03 3.419406094349123126e+00 8.361096802153092256e+00 6.887323228264756458e-02 6.697260246608986722e-02 3.358253907169124752e-01
5.025000000000000000e+03 3.423328627085080456e+00 8.356546659527049670e+00 6.908722958533851377e-02 6.717615268396615047e-02 3.360734955432244098e-01
5.030000000000000000e+03 3.427252317027622119e+00 8.352009567970357651e+00 6.930168887754514784e-02 6.738011716938289986e-02 3.363214746532041666e-01
5.035000000000000000e+03 3.431177160833902118e+00 8.347485474246280290e+00 6.951661072688809784e-02 6.758449631515801859e-02 3.365693286125812089e-01
5.040000000000000000e+03 3.435103155165545541e+00 8.342974325390066781e+00 6.973199570117939727e-02 6.778929051381715754e-02 3.368170579851403890e-01
5.045000000000000000e+03 3.439030296688604604e+00 8.338476068707290523e+00 6.994784436842078901e-02 6.799450015759125887e-02 3.370646633327251118e-01
5.050000000000000000e+03 3.442958582073566198e+00 8.333990651772136715e+00 7.016415729680451630e-02 6.820012563841650055e-02 3.373121452152409994e-01
5.055000000000000000e+03 3.446888007995355441e+00 8.329518022425737911e+00 7.038093505471396116e-02 6.840616734793399101e-02 3.375595041906598870e-01
5.060000000000000000e+03 3.450818571133280166e+00 8.325058128774539767e+00 7.059817821072128519e-02 6.861262567748652175e-02 3.378067408150229878e-01
5.065000000000000000e+03 3.454750268171071781e+00 8.320610919188617061e+00 7.081588733359051036e-02 6.881950101812074616e-02 3.380538556424447227e-01
5.070000000000000000e+03 3.458683095796824425e+00 8.316176342300080293e+00 7.103406299227442433e-02 6.902679376058334926e-02 3.383008492251163291e-01
5.075000000000000000e+03 3.462617050703024724e+00 8.311754347001420129e+00 7.125270575591637068e-02 6.923450429532178318e-02 3.385477221133094128e-01
5.080000000000000000e+03 3.466552129586517150e+00 8.307344882443912226e+00 7.147181619384992968e-02 6.944263301248319864e-02 3.387944748553796681e-01
5.085000000000000000e+03 3.470488329148499584e+00 8.302947898036022067e+00 7.169139487559821056e-02 6.965118030191272402e-02 3.390411079977706521e-01
5.090000000000000000e+03 3.474425646094507325e+00 8.298563343441816897e+00 7.191144237087407354e-02 6.986014655315293809e-02 3.392876220850173929e-01
5.095000000000000000e+03 3.478364077134408205e+00 8.294191168579391871e+00 7.213195924958006044e-02 7.006953215544284297e-02 3.395340176597497761e-01
5.100000000000000000e+03 3.482303618982395932e+00 8.289831323619292647e+00 7.235294608180897757e-02 7.027933749771754501e-02 3.397802952626969297e-01
5.105000000000000000e+03 3.486244268356966547e+00 8.285483758982980618e+00 7.257440343784254955e-02 7.048956296860611759e-02 3.400264554326901667e-01
5.110000000000000000e+03 3.490186021980910880e+00 8.281148425341291031e+00 7.279633188815205769e-02 7.070020895643126801e-02 3.402724987066672591e-01
5.115000000000000000e+03 3.494128876581328313e+00 8.276825273612873346e+00 7.301873200339933923e-02 7.091127584920947635e-02 3.405184256196758796e-01
5.120000000000000000e+03 3.498072828889570829e+00 8.272514254962727520e+00 7.324160435443433093e-02 7.112276403464762309e-02 3.407642367048775434e-01
5.125000000000000000e+03 3.502017875641266986e+00 8.268215320800653245e+00 7.346494951229665116e-02 7.133467390014386345e-02 3.410099324935510490e-01
5.130000000000000000e+03 3.505964013576293503e+00 8.263928422779773797e+00 7.368876804821505866e-02 7.154700583278587878e-02 3.412555135150967534e-01
5.135000000000000000e+03 3.509911239438790798e+00 8.259653512795019026e+00 7.391306053360822970e-02 7.175976021935107085e-02 3.415009802970396247e-01
5.140000000000000000e+03 3.513859549977118579e+00 8.255390542981698943e+00 7.413782754008328701e-02 7.197293744630400836e-02 3.417463333650337942e-01
5.145000000000000000e+03 3.517808941943853185e+00 8.251139465714020460e+00 7.436306963943577208e-02 7.218653789979564972e-02 3.419915732428657207e-01
5.150000000000000000e+03 3.521759412095817332e+00 8.246900233603586372e+00 7.458878740365219862e-02 7.240056196566485580e-02 3.422367004524583534e-01
5.155000000000000000e+03 3.525710957194001072e+00 8.242672799498039993e+00 7.481498140490559778e-02 7.261501002943329675e-02 3.424817155138747404e-01
5.160000000000000000e+03 3.529663574003609749e+00 8.238457116479555253e+00 7.504165221555932075e-02 7.282988247630796386e-02 3.427266189453218592e-01
5.165000000000000000e+03 3.533617259294028035e+00 8.234253137863454697e+00 7.526880040816506801e-02 7.304517969117883813e-02 3.429714112631546130e-01
5.170000000000000000e+03 3.537572009838812814e+00 8.230060817196784839e+00 7.549642655546316694e-02 7.326090205861773841e-02 3.432160929818794948e-01
5.175000000000000000e+03 3.541527822415689641e+00 8.225880108256903966e+00 7.572453123038287714e-02 7.347704996287814094e-02 3.434606646141584174e-01
5.180000000000000000e+03 3.545484693806527865e+00 8.221710965050117892e+00 7.595311500604123855e-02 7.369362378789294510e-02 3.437051266708124331e-01
5.185000000000000000e+03 3.549442620797345072e+00 8.217553341810274858e+00 7.618217845574426494e-02 7.391062391727483416e-02 3.439494796608260074e-01
5.190000000000000000e+03 3.553401600178306197e+00 8.213407192997372874e+00 7.641172215298695780e-02 7.412805073431531777e-02 3.441937240913503504e-01
5.195000000000000000e+03 3.557361628743684889e+00 8.209272473296257644e+00 7.664174667145166875e-02 7.434590462198235883e-02 3.444378604677076350e-01
5.200000000000000000e+03 3.561322703291870173e+00 8.205149137615212140e+00 7.687225258500940406e-02 7.456418596292067880e-02 3.446818892933947720e-01
5.205000000000000000e+03 3.565284820625359785e+00 8.201037141084643878e+00 7.710324046771926954e-02 7.478289513945027278e-02 3.449258110700871294e-01
5.210000000000000000e+03 3.569247977550756623e+00 8.196936439055727774e+00 7.733471089382881747e-02 7.500203253356593769e-02 3.451696262976425844e-01
5.215000000000000000e+03 3.573212170878732774e+00 8.192846987099107636e+00 7.756666443777333886e-02 7.522159852693571791e-02 3.454133354741053541e-01
5.220000000000000000e+03 3.577177397424045502e+00 8.188768741003565665e+00 7.779910167417601607e-02 7.544159350090004490e-02 3.456569390957099364e-01
5.225000000000000000e+03 3.581143654005517707e+00 8.184701656774720391e+00 7.803202317784804776e-02 7.566201783647104329e-02 3.459004376568847738e-01
5.230000000000000000e+03 3.585110937446037038e+00 8.180645690633721046e+00 7.826542952378888474e-02 7.588287191433183698e-02 3.461438316502565282e-01
5.235000000000000000e+03 3.589079244572523031e+00 8.176600799015972143e+00 7.849932128718502267e-02 7.610415611483448139e-02 3.463871215666536885e-01
5.240000000000000000e+03 3.593048572215950198e+00 8.172566938569865158e+00 7.873369904341102898e-02 7.632587081800004669e-02 3.466303078951104011e-01
5.245000000000000000e+03 3.597018917211325828e+00 8.168544066155460470e+00 7.896856336802980658e-02 7.654801640351809044e-02 3.468733911228708000e-01
5.250000000000000000e+03 3.600990276397655787e+00 8.164532138843306086e+00 7.920391483679026234e-02 7.677059325074331309e-02 3.471163717353926148e-01
5.255000000000000000e+03 3.604962646617989819e+00 8.160531113913100043e+00 7.943975402563058230e-02 7.699360173869791713e-02 3.473592502163508899e-01
5.260000000000000000e+03 3.608936024719343383e+00 8.156540948852519790e+00 7.967608151067472055e-02 7.721704224606738831e-02 3.476020270476424812e-01
5.265000000000000000e+03 3.612910407552754943e+00 8.152561601355941434e+00 7.991289786823484176e-02 7.744091515120186953e-02 3.478447027093895527e-01
5.270000000000000000e+03 3.616885791973233122e+00 8.148593029323240700e+00 8.015020367481046071e-02 7.766522083211446770e-02 3.480872776799435742e-01
5.275000000000000000e+03 3.620862174839775793e+00 8.144635190858547702e+00 8.038799950708838682e-02 7.788995966648021296e-02 3.483297524358893171e-01
5.280000000000000000e+03 3.624839553015332783e+00 8.140688044269079882e+00 8.062628594194207188e-02 7.811513203163467089e-02 3.485721274520487967e-01
5.285000000000000000e+03 3.628817923366826292e+00 8.136751548063902106e+00 8.086506355643272026e-02 7.834073830457406740e-02 3.488144032014852125e-01
5.290000000000000000e+03 3.632797282765107383e+00 8.132825660952768487e+00 8.110433292780751258e-02 7.856677886195255478e-02 3.490565801555067238e-01
5.295000000000000000e+03 3.636777628084995495e+00 8.128910341844900245e+00 8.134409463350210368e-02 7.879325408008387710e-02 3.492986587836707790e-01
5.300000000000000000e+03 3.640758956205214947e+00 8.125005549847861275e+00 8.158434925113733360e-02 7.902016433493722070e-02 3.495406395537876132e-01
5.305000000000000000e+03 3.644741264008444226e+00 8.121111244266334239e+00 8.182509735852275257e-02 7.924751000213975383e-02 3.497825229319246332e-01
5.310000000000000000e+03 3.648724548381237831e+00 8.117227384601028106e+00 8.206633953365218004e-02 7.947529145697138087e-02 3.500243093824099150e-01
5.315000000000000000e+03 3.652708806214101322e+00 8.113353930547448911e+00 8.230807635470922812e-02 7.970350907436922483e-02 3.502659993678365891e-01
5.320000000000000000e+03 3.656694034401390514e+00 8.109490841994841048e+00 8.255030840006075121e-02 7.993216322892035541e-02 3.505075933490664486e-01
5.325000000000000000e+03 3.660680229841404731e+00 8.105638079024970466e+00 8.279303624826321595e-02 8.016125429486711806e-02 3.507490917852342793e-01
5.330000000000000000e+03 3.664667389436272682e+00 8.101795601911076616e+00 8.303626047805730270e-02 8.039078264610081959e-02 3.509904951337514678e-01
5.335000000000000000e+03 3.668655510092028393e+00 8.097963371116691178e+00 8.327998166837130567e-02 8.062074865616446206e-02 3.512318038503101092e-01
5.340000000000000000e+03 3.672644588718569469e+00 8.094141347294549149e+00 8.352420039831986998e-02 8.085115269825021711e-02 3.514730183888871151e-01
5.345000000000000000e+03 3.676634622229624227e+00 8.090329491285514152e+00 8.376891724720271493e-02 8.108199514519758011e-02 3.517141392017478219e-01
5.350000000000000000e+03 3.680625607542813427e+00 8.086527764117413142e+00 8.401413279450785365e-02 8.131327636949542415e-02 3.519551667394504313e-01
5.355000000000000000e+03 3.684617541579542799e+00 8.082736127004041649e+00 8.425984761990676364e-02 8.154499674327653214e-02 3.521961014508494525e-01
5.360000000000000000e+03 3.688610421265104300e+00 8.078954541343977169e+00 8.450606230325971580e-02 8.177715663832164916e-02 3.524369437831001983e-01
5.365000000000000000e+03 3.692604243528574415e+00 8.075182968719603949e+00 8.475277742461080621e-02 8.200975642605416727e-02 3.526776941816622823e-01
5.370000000000000000e+03 3.696599005302874108e+00 8.071421370895970782e+00 8.499999356419189744e-02 8.224279647754252631e-02 3.529183530903040600e-01
5.375000000000000000e+03 3.700594703524707985e+00 8.067669709819790924e+00 8.524771130241901029e-02 8.247627716349617555e-02 3.531589209511061256e-01
5.380000000000000000e+03 3.704591335134593599e+00 8.063927947618349634e+00 8.549593121989487732e-02 8.271019885426703078e-02 3.533993982044656423e-01
5.385000000000000000e+03 3.708588897076840141e+00 8.060196046598475661e+00 8.574465389740781873e-02 8.294456191984751758e-02 3.536397852891000615e-01
5.390000000000000000e+03 3.712587386299548431e+00 8.056473969245489641e+00 8.599387991593246405e-02 8.317936672987015501e-02 3.538800826420513967e-01
5.395000000000000000e+03 3.716586799754576287e+00 8.052761678222216446e+00 8.624360985662776757e-02 8.341461365360512692e-02 3.541202906986899435e-01
5.400000000000000000e+03 3.720587134397578932e+00 8.049059136367894496e+00 8.649384430083950637e-02 8.365030305996143389e-02 3.543604098927182755e-01
5.405000000000000000e+03 3.724588387187939720e+00 8.045366306697241399e+00 8.674458383009760187e-02 8.388643531748352089e-02 3.546004406561752975e-01
5.410000000000000000e+03 3.728590555088821201e+00 8.041683152399363266e+00 8.699582902611860402e-02 8.412301079435277606e-02 3.548403834194401862e-01
5.415000000000000000e+03 3.732593635067122939e+00 8.038009636836802585e+00 8.724758047080365120e-02 8.436002985838468582e-02 3.550802386112363873e-01
5.420000000000000000e+03 3.736597624093478398e+00 8.034345723544538131e+00 8.749983874623944169e-02 8.459749287702884868e-02 3.553200066586355010e-01
5.425000000000000000e+03 3.740602519142262050e+00 8.030691376228968892e+00 8.775260443469795613e-02 8.483540021736764303e-02 3.555596879870615568e-01
5.430000000000000000e+03 3.744608317191570279e+00 8.027046558766969042e+00 8.800587811863626320e-02 8.507375224611546383e-02 3.557992830202942325e-01
5.435000000000000000e+03 3.748615015223202729e+00 8.023411235204889635e+00 8.825966038069597841e-02 8.531254932961687687e-02 3.560387921804739064e-01
5.440000000000000000e+03 3.752622610222686728e+00 8.019785369757578053e+00 8.851395180370509597e-02 8.555179183384788166e-02 3.562782158881047101e-01
5.445000000000000000e+03 3.756631099179228439e+00 8.016168926807464956e+00 8.876875297067439441e-02 8.579148012441119298e-02 3.565175545620589692e-01
5.450000000000000000e+03 3.760640479085747945e+00 8.012561870903544659e+00 8.902406446480155833e-02 8.603161456653957151e-02 3.567568086195809784e-01
5.455000000000000000e+03 3.764650746938847270e+00 8.008964166760470960e+00 8.927988686946837504e-02 8.627219552509195200e-02 3.569959784762910537e-01
5.460000000000000000e+03 3.768661899738793952e+00 8.005375779257601465e+00 8.953622076824073461e-02 8.651322336455287421e-02 3.572350645461893626e-01
5.465000000000000000e+03 3.772673934489546799e+00 8.001796673438049012e+00 8.979306674487033679e-02 8.675469844903282990e-02 3.574740672416602538e-01
5.470000000000000000e+03 3.776686848198715474e+00 7.998226814507773952e+00 9.005042538329253998e-02 8.699662114226555665e-02 3.577129869734756440e-01
5.475000000000000000e+03 3.780700637877572046e+00 7.994666167834637349e+00 9.030829726762767962e-02 8.723899180760828764e-02 3.579518241507994580e-01
5.480000000000000000e+03 3.784715300541050098e+00 7.991114698947495043e+00 9.056668298218115143e-02 8.748181080804094678e-02 3.581905791811914042e-01
5.485000000000000000e+03 3.788730833207703430e+00 7.987572373535297032e+00 9.082558311144157959e-02 8.772507850616341474e-02 3.584292524706109706e-01
5.490000000000000000e+03 3.792747232899733145e+00 7.984039157446162882e+00 9.108499824008187140e-02 8.796879526419580653e-02 3.586678444234211449e-01
5.495000000000000000e+03 3.796764496642988984e+00 7.980515016686463348e+00 9.134492895296168757e-02 8.821296144397967887e-02 3.589063554423928548e-01
5.500000000000000000e+03 3.800782621466902267e+00 7.976999917419999697e+00 9.160537583512126658e-02 8.845757740697131333e-02 3.591447859287084654e-01
5.505000000000000000e+03 3.804801604404562720e+00 7.973493825967029380e+00 9.186633947178787785e-02 8.870264351424707316e-02 3.593831362819657205e-01
5.510000000000000000e+03 3.808821442492638099e+00 7.969996708803442687e+00 9.212782044837140860e-02 8.894816012649815751e-02 3.596214069001822389e-01
5.515000000000000000e+03 3.812842132771416370e+00 7.966508532559855027e+00 9.238981935046666760e-02 8.919412760403193363e-02 3.598595981797987342e-01
5.520000000000000000e+03 3.816863672284765752e+00 7.963029264020766718e+00 9.265233676385152550e-02 8.944054630676911977e-02 3.600977105156835667e-01
5.525000000000000000e+03 3.820886058080148473e+00 7.959558870123671248e+00 9.291537327448823325e-02 8.968741659424436796e-02 3.603357443011359629e-01
5.530000000000000000e+03 3.824909287208612341e+00 7.956097317958199966e+00 9.317892946852283920e-02 8.993473882560464039e-02 3.605736999278907895e-01
5.535000000000000000e+03 3.828933356724779191e+00 7.952644574765293406e+00 9.344300593228530016e-02 9.018251335960840442e-02 3.608115777861221063e-01
5.540000000000000000e+03 3.832958263686835565e+00 7.949200607936323770e+00 9.370760325228921772e-02 9.043074055462436978e-02 3.610493782644467187e-01
5.545000000000000000e+03 3.836984005156526045e+00 7.945765385012276028e+00 9.397272201523153290e-02 9.067942076863068357e-02 3.612871017499287296e-01
5.550000000000000000e+03 3.841010578199151038e+00 7.942338873682904143e+00 9.423836280799272047e-02 9.092855435921363971e-02 3.615247486280830924e-01
5.555000000000000000e+03 3.845037979883576984e+00 7.938921041785878430e+00 9.450452621763823224e-02 9.117814168356851157e-02 3.617623192828796075e-01
5.560000000000000000e+03 3.849066207282176411e+00 7.935511857306021710e+00 9.477121283141418107e-02 9.142818309849443104e-02 3.619998140967468081e-01
5.565000000000000000e+03 3.853095257470892321e+00 7.932111288374406932e+00 9.503842323675282255e-02 9.167867896039871844e-02 3.622372334505761238e-01
5.570000000000000000e+03 3.857125127529173358e+00 7.928719303267616425e+00 9.530615802126816971e-02 9.192962962529172000e-02 3.624745777237252664e-01
5.575000000000000000e+03 3.861155814540000009e+00 7.925335870406889249e+00 9.557441777275824113e-02 9.218103544878800126e-02 3.627118472940225602e-01
5.580000000000000000e+03 3.865187315589857064e+00 7.921960958357343152e+00 9.584320307920296544e-02 9.243289678610366877e-02 3.629490425377709939e-01
5.585000000000000000e+03 3.869219627768762049e+00 7.918594535827145009e+00 9.611251452876745649e-02 9.268521399205825739e-02 3.631861638297514960e-01
5.590000000000000000e+03 3.873252748170211035e+00 7.915236571666750542e+00 9.638235270979847447e-02 9.293798742107069188e-02 3.634232115432272647e-01
5.595000000000000000e+03 3.877286673891203073e+00 7.911887034868112067e+00 9.665271821082543902e-02 9.319121742715918977e-02 3.636601860499477645e-01
5.600000000000000000e+03 3.881321402032239742e+00 7.908545894563865808e+00 9.692361162056239987e-02 9.344490436394227439e-02 3.638970877201522791e-01
5.605000000000000000e+03 3.885356929697286077e+00 7.905213120026602702e+00 9.719503352790416495e-02 9.369904858463415365e-02 3.641339169225739081e-01
5.610000000000000000e+03 3.889393253993797650e+00 7.901888680668044174e+00 9.746698452193011675e-02 9.395365044204745386e-02 3.643706740244436193e-01
5.615000000000000000e+03 3.893430372032705034e+00 7.898572546038316489e+00 9.773946519190164495e-02 9.420871028858987528e-02 3.646073593914939126e-01
5.620000000000000000e+03 3.897468280928399587e+00 7.895264685825159390e+00 9.801247612726303460e-02 9.446422847626401165e-02 3.648439733879627056e-01
5.625000000000000000e+03 3.901506977798713027e+00 7.891965069853206671e+00 9.828601791764016160e-02 9.472020535666537955e-02 3.650805163765973860e-01
5.630000000000000000e+03 3.905546459764966727e+00 7.888673668083175272e+00 9.856009115284355970e-02 9.497664128098425029e-02 3.653169887186585307e-01
5.635000000000000000e+03 3.909586723951902432e+00 7.885390450611172497e+00 9.883469642286449308e-02 9.523353660000104248e-02 3.655533907739237365e-01
5.640000000000000000e+03 3.913627767487709352e+00 7.882115387667927742e+00 9.910983431787723230e-02 9.549089166408764040e-02 3.657897229006914497e-01
5.645000000000000000e+03 3.917669587504009954e+00 7.878848449618057082e+00 9.938550542823838818e-02 9.574870682320567317e-02 3.660259854557851300e-01
5.650000000000000000e+03 3.921712181135863062e+00 7.875589606959337630e+00 9.966171034448725874e-02 9.600698242690616779e-02 3.662621787945565255e-01
5.655000000000000000e+03 3.925755545521737666e+00 7.872338830321965020e+00 9.993844965734438590e-02 9.626571882432705118e-02 3.664983032708900579e-01
5.660000000000000000e+03 3.929799677803521796e+00 7.869096090467849969e+00 1.002157239577131653e-01 9.652491636419381626e-02 3.667343592372065419e-01
5.665000000000000000e+03 3.933844575126531407e+00 7.865861358289877536e+00 1.004935338366796521e-01 9.678457539481849503e-02 3.669703470444665716e-01
5.670000000000000000e+03 3.937890234639474851e+00 7.862634604811196581e+00 1.007718798855116449e-01 9.704469626409774341e-02 3.672062670421751274e-01
5.675000000000000000e+03 3.941936653494442222e+00 7.859415801184546524e+00 1.010507626956575061e-01 9.730527931951091225e-02 3.674421195783846850e-01
5.680000000000000000e+03 3.945983828846953756e+00 7.856204918691483741e+00 1.013301828587500064e-01 9.756632490812271186e-02 3.676779049996992677e-01
5.685000000000000000e+03 3.950031757855882564e+00 7.853001928741753623e+00 1.016101409666012451e-01 9.782783337657756373e-02 3.679136236512784985e-01
5.690000000000000000e+03 3.954080437683511029e+00 7.849806802872533851e+00 1.018906376112075490e-01 9.808980507110311164e-02 3.681492758768411533e-01
5.695000000000000000e+03 3.958129865495479738e+00 7.846619512747790459e+00 1.021716733847455871e-01 9.835224033750585015e-02 3.683848620186689904e-01
5.700000000000000000e+03 3.962180038460795028e+00 7.843440030157557530e+00 1.024532488795730362e-01 9.861513952117077764e-02 3.686203824176106369e-01
5.705000000000000000e+03 3.966230953751856081e+00 7.840268327017264838e+00 1.027353646882312316e-01 9.887850296706288122e-02 3.688558374130852524e-01
5.710000000000000000e+03 3.970282608544388303e+00 7.837104375367077047e+00 1.030180214034415453e-01 9.914233101972289020e-02 3.690912273430865254e-01
5.715000000000000000e+03 3.974335000017483743e+00 7.833948147371184945e+00 1.033012196181070513e-01 9.940662402326798375e-02 3.693265525441862818e-01
5.720000000000000000e+03 3.978388125353587768e+00 7.830799615317165063e+00 1.035849599253126641e-01 9.967138232139075016e-02 3.695618133515382042e-01
5.725000000000000000e+03 3.982441981738484404e+00 7.827658751615298449e+00 1.038692429183249583e-01 9.993660625735836800e-02 3.697970100988819397e-01
5.730000000000000000e+03 3.986496566361292349e+00 7.824525528797918739e+00 1.041540691905908644e-01 1.002022961740103718e-01 3.700321431185462639e-01
5.735000000000000000e+03 3.990551876414446753e+00 7.821399919518762012e+00 1.044394393357386680e-01 1.004684524137586521e-01 3.702672127414535774e-01
5.740000000000000000e+03 3.994607909093740084e+00 7.818281896552280230e+00 1.047253539475792861e-01 1.007350753185875664e-01 3.705022192971232364e-01
5.745000000000000000e+03 3.998664661598247960e+00 7.815171432793034612e+00 1.050118136201024371e-01 1.010021652300498451e-01 3.707371631136751611e-01
5.750000000000000000e+03 4.002722131130397543e+00 7.812068501255016173e+00 1.052988189474811792e-01 1.012697224892695202e-01 3.709720445178341097e-01
5.755000000000000000e+03 4.006780314895897810e+00 7.808973075071036440e+00 1.055863705240687317e-01 1.015377474369381222e-01 3.712068638349328431e-01
5.760000000000000000e+03 4.010839210103767094e+00 7.805885127492067532e+00 1.058744689443982534e-01 1.018062404133137366e-01 3.714416213889163432e-01
5.765000000000000000e+03 4.014898813966324198e+00 7.802804631886625764e+00 1.061631148031850214e-01 1.020752017582219617e-01 3.716763175023449772e-01
5.770000000000000000e+03 4.018959123699185731e+00 7.799731561740121499e+00 1.064523086953250292e-01 1.023446318110535630e-01 3.719109524963989388e-01
5.775000000000000000e+03 4.023020136521243906e+00 7.796665890654266740e+00 1.067420512158943902e-01 1.026145309107632519e-01 3.721455266908813564e-01
5.780000000000000000e+03 4.027081849654684298e+00 7.793607592346423196e+00 1.070323429601503923e-01 1.028848993958696306e-01 3.723800404042224566e-01
5.785000000000000000e+03 4.031144260324967199e+00 7.790556640649000109e+00 1.073231845235313592e-01 1.031557376044541507e-01 3.726144939534828393e-01
5.790000000000000000e+03 4.035207365760816955e+00 7.787513009508852946e+00 1.076145765016553041e-01 1.034270458741587267e-01 3.728488876543574193e-01
5.795000000000000000e+03 4.039271163194226411e+00 7.784476672986651913e+00 1.079065194903208180e-01 1.036988245421861243e-01 3.730832218211792561e-01
5.800000000000000000e+03 4.043335649860453351e+00 7.781447605256293976e+00 1.081990140855076943e-01 1.039710739452991139e-01 3.733174967669229960e-01
5.805000000000000000e+03 4.047400822998018732e+00 7.778425780604282913e+00 1.084920608833765537e-01 1.042437944198194993e-01 3.735517128032087020e-01
5.810000000000000000e+03 4.051466679848670260e+00 7.775411173429167988e+00 1.087856604802660138e-01 1.045169863016244260e-01 3.737858702403053512e-01
5.815000000000000000e+03 4.055533217657429468e+00 7.772403758240902683e+00 1.090798134726974761e-01 1.047906499261500590e-01 3.740199693871347209e-01
5.820000000000000000e+03 4.059600433672538422e+00 7.769403509660292251e+00 1.093745204573714769e-01 1.050647856283870446e-01 3.742540105512750515e-01
5.825000000000000000e+03 4.063668325145477489e+00 7.766410402418394199e+00 1.096697820311686028e-01 1.053393937428806076e-01 3.744879940389646000e-01
5.830000000000000000e+03 4.067736889330960004e+00 7.763424411355936527e+00 1.099655987911495186e-01 1.056144746037297188e-01 3.747219201551050261e-01
5.835000000000000000e+03 4.071806123486926055e+00 7.760445511422732423e+00 1.102619713345553837e-01 1.058900285445862760e-01 3.749557892032658324e-01
5.840000000000000000e+03 4.075876024874540704e+00 7.757473677677111823e+00 1.105589002588077130e-01 1.061660558986542852e-01 3.751896014856871409e-01
5.845000000000000000e+03 4.079946590758175340e+00 7.754508885285345876e+00 1.108563861615071422e-01 1.064425569986877373e-01 3.754233573032838556e-01
5.850000000000000000e+03 4.084017818405402345e+00 7.751551109521097160e+00 1.111544296404335802e-01 1.067195321769899286e-01 3.756570569556492156e-01
5.855000000000000000e+03 4.088089705087015524e+00 7.748600325764829932e+00 1.114530312935479162e-01 1.069969817654137650e-01 3.758907007410580703e-01
5.860000000000000000e+03 4.092162248077008790e+00 7.745656509503250575e+00 1.117521917189907288e-01 1.072749060953601397e-01 3.761242889564709868e-01
5.865000000000000000e+03 4.096235444652553959e+00 7.742719636328772026e+00 1.120519115150811623e-01 1.075533054977755310e-01 3.763578218975376921e-01
5.870000000000000000e+03 4.100309292094032720e+00 7.739789681938932908e+00 1.123521912803195771e-01 1.078321803031538212e-01 3.765912998586004035e-01
5.875000000000000000e+03 4.104383787685003782e+00 7.736866622135869065e+00 1.126530316133849824e-01 1.081115308415329240e-01 3.768247231326978808e-01
5.880000000000000000e+03 4.108458928712197533e+00 7.733950432825758448e+00 1.129544331131350360e-01 1.083913574424937160e-01 3.770580920115687018e-01
5.885000000000000000e+03 4.112534712465537368e+00 7.731041090018268669e+00 1.132563963786091255e-01 1.086716604351622012e-01 3.772914067856549813e-01
5.890000000000000000e+03 4.116611136238105928e+00 7.728138569826022319e+00 1.135589220090236912e-01 1.089524401482040716e-01 3.775246677441058130e-01
5.895000000000000000e+03 4.120688197326145996e+00 7.725242848464072054e+00 1.138620106037754182e-01 1.092336969098267746e-01 3.777578751747810437e-01
5.900000000000000000e+03 4.124765893029078256e+00 7.722353902249342816e+00 1.141656627624410558e-01 1.095154310477785831e-01 3.779910293642547714e-01
5.905000000000000000e+03 4.128844220649463992e+00 7.719471707600129129e+00 1.144698790847747255e-01 1.097976428893449041e-01 3.782241305978187862e-01
5.910000000000000000e+03 4.132923177493027289e+00 7.716596241035534653e+00 1.147746601707118203e-01 1.100803327613512073e-01 3.784571791594862900e-01
5.915000000000000000e+03 4.137002760868634610e+00 7.713727479174981028e+00 1.150800066203653549e-01 1.103635009901586111e-01 3.786901753319953934e-01
5.920000000000000000e+03 4.141082968088282357e+00 7.710865398737669629e+00 1.153859190340270902e-01 1.106471479016639808e-01 3.789231193968124467e-01
5.925000000000000000e+03 4.145163796467137729e+00 7.708009976542052222e+00 1.156923980121700168e-01 1.109312738213014404e-01 3.791560116341360920e-01
5.930000000000000000e+03 4.149245243323452570e+00 7.705161189505361108e+00 1.159994441554423744e-01 1.112158790740356840e-01 3.793888523229002607e-01
5.935000000000000000e+03 4.153327305978654849e+00 7.702319014643031814e+00 1.163070580646751451e-01 1.115009639843681927e-01 3.796216417407778931e-01
5.940000000000000000e+03 4.157409981757258066e+00 7.699483429068258999e+00 1.166152403408750732e-01 1.117865288763298104e-01 3.798543801641845463e-01
5.945000000000000000e+03 4.161493267986925204e+00 7.696654409991442236e+00 1.169239915852299527e-01 1.120725740734846154e-01 3.800870678682818915e-01
5.950000000000000000e+03 4.165577161998400335e+00 7.693831934719730370e+00 1.172333123991033815e-01 1.123590998989243001e-01 3.803197051269809337e-01
5.955000000000000000e+03 4.169661661125573460e+00 7.691015980656463746e+00 1.175432033840416585e-01 1.126461066752733747e-01 3.805522922129460639e-01
5.960000000000000000e+03 4.173746762705406788e+00 7.688206525300744332e+00 1.178536651417652487e-01 1.129335947246807165e-01 3.807848293975978349e-01
5.965000000000000000e+03 4.177832464077983587e+00 7.685403546246890372e+00 1.181646982741759444e-01 1.132215643688250367e-01 3.810173169511171243e-01
5.970000000000000000e+03 4.181918762586480653e+00 7.682607021183965657e+00 1.184763033833536733e-01 1.135100159289108429e-01 3.812497551424480768e-01
5.975000000000000000e+03 4.186005655577154982e+00 7.679816927895305234e+00 1.187884810715557349e-01 1.137989497256672450e-01 3.814821442393021567e-01
5.980000000000000000e+03 4.190093140399363314e+00 7.677033244258014477e+00 1.191012319412182996e-01 1.140883660793480942e-01 3.817144845081608118e-01
