#[MATERIAL DEFINITION FOR MC-GPU: interaction mean free path and sampling data from PENELOPE 2006]
#[MATERIAL NAME]
# muscle_tissue(0.102:H_0.142:C_0.034:N_0.711:O_0.001:Na_0.002:P_0.003:S_0.001:Cl_0.004:K)
#[NOMINAL DENSITY (g/cm^3)]
# 1.05
#[NUMBER OF DATA VALUES]
# 24001
#[MEAN FREE PATHS (cm)]
#[Energy (eV)     | Rayleigh        | Compton         | Photoelectric   | TOTAL (+pair prod) (cm) | Rayleigh: max cumul prob F^2]
5.000000000000000000e+03 1.796300703231459961e+00 8.510859000266810526e+00 2.297749179734683359e-02 2.262696955445759467e-02 3.436654564559748493e-01
5.005000000000000000e+03 1.798337424924908889e+00 8.505111662320159027e+00 2.304646427242050544e-02 2.269413448807303113e-02 3.439230390650563907e-01
5.010000000000000000e+03 1.800375373413772850e+00 8.499380582375717808e+00 2.311557913832935560e-02 2.276143423393698142e-02 3.441803316101178511e-01
5.015000000000000000e+03 1.802414547375433385e+00 8.493665696134234722e+00 2.318483655456504353e-02 2.282886892680285537e-02 3.444373347592086798e-01
5.020000000000000000e+03 1.804454945489459616e+00 8.487966939623355245e+00 2.325423668064122845e-02 2.289643870138705420e-02 3.446940491797336747e-01
5.025000000000000000e+03 1.806496566437596929e+00 8.482284249195622294e+00 2.332377967609301078e-02 2.296414369236835298e-02 3.449504755384460442e-01
5.030000000000000000e+03 1.808539408903771184e+00 8.476617561526396116e+00 2.339346570047787233e-02 2.303198403438872985e-02 3.452066145014405785e-01
5.035000000000000000e+03 1.810583471574065406e+00 8.470966813611919832e+00 2.346329491337468057e-02 2.309995986205228002e-02 3.454624667341474331e-01
5.040000000000000000e+03 1.812628753136722226e+00 8.465331942767264195e+00 2.353326747438449357e-02 2.316807130992590627e-02 3.457180329013254116e-01
5.045000000000000000e+03 1.814675252282113238e+00 8.459712886624421557e+00 2.360338354312965792e-02 2.323631851253839947e-02 3.459733136670556375e-01
5.050000000000000000e+03 1.816722967702749436e+00 8.454109583130300365e+00 2.367364327925434997e-02 2.330470160438081681e-02 3.462283096947346706e-01
5.055000000000000000e+03 1.818771898093267891e+00 8.448521970544780046e+00 2.374404684242464175e-02 2.337322071990644706e-02 3.464830216470688451e-01
5.060000000000000000e+03 1.820822042150408659e+00 8.442949987438828074e+00 2.381459439232778974e-02 2.344187599353011325e-02 3.467374501860677194e-01
5.065000000000000000e+03 1.822873398573027215e+00 8.437393572692501564e+00 2.388528608867303629e-02 2.351066755962873123e-02 3.469915959730377475e-01
5.070000000000000000e+03 1.824925966062057592e+00 8.431852665493142496e+00 2.395612209119079433e-02 2.357959555254051515e-02 3.472454596685765060e-01
5.075000000000000000e+03 1.826979743320526817e+00 8.426327205333404180e+00 2.402710255963317471e-02 2.364866010656540077e-02 3.474990419325662550e-01
5.080000000000000000e+03 1.829034729053537589e+00 8.420817132009407402e+00 2.409822765377375026e-02 2.371786135596464298e-02 3.477523434241682754e-01
5.085000000000000000e+03 1.831090921968251406e+00 8.415322385618900114e+00 2.416949753340743440e-02 2.378719943496071867e-02 3.480053648018165968e-01
5.090000000000000000e+03 1.833148320773887896e+00 8.409842906559381603e+00 2.424091235835048111e-02 2.385667447773710120e-02 3.482581067232126681e-01
5.095000000000000000e+03 1.835206924181705501e+00 8.404378635526285279e+00 2.431247228844043290e-02 2.392628661843824653e-02 3.485105698453188627e-01
5.100000000000000000e+03 1.837266730905013024e+00 8.398929513511129485e+00 2.438417748353634631e-02 2.399603599116965913e-02 3.487627548243533160e-01
5.105000000000000000e+03 1.839327739659133876e+00 8.393495481799735813e+00 2.445602810351836173e-02 2.406592272999732995e-02 3.490146623157839856e-01
5.110000000000000000e+03 1.841389949161412076e+00 8.388076481970434983e+00 2.452802430828775887e-02 2.413594696894780581e-02 3.492662929743230449e-01
5.115000000000000000e+03 1.843453358131208253e+00 8.382672455892244301e+00 2.460016625776736271e-02 2.420610884200840793e-02 3.495176474539214428e-01
5.120000000000000000e+03 1.845517965289873441e+00 8.377283345723157026e+00 2.467245411190079757e-02 2.427640848312645830e-02 3.497687264077634639e-01
5.125000000000000000e+03 1.847583769360750638e+00 8.371909093908342925e+00 2.474488803065284098e-02 2.434684602620948088e-02 3.500195304882608438e-01
5.130000000000000000e+03 1.849650769069162815e+00 8.366549643178426976e+00 2.481746817400929880e-02 2.441742160512503854e-02 3.502700603470482177e-01
5.135000000000000000e+03 1.851718963142416685e+00 8.361204936547718347e+00 2.489019470197730011e-02 2.448813535370094469e-02 3.505203166349770139e-01
5.140000000000000000e+03 1.853788350309770072e+00 8.355874917312544170e+00 2.496306777458466228e-02 2.455898740572443062e-02 3.507703000021106798e-01
5.145000000000000000e+03 1.855858929302433014e+00 8.350559529049533580e+00 2.503608755188007490e-02 2.462997789494239184e-02 3.510200110977194088e-01
5.150000000000000000e+03 1.857930698853579088e+00 8.345258715613837808e+00 2.510925419393364097e-02 2.470110695506171072e-02 3.512694505702748660e-01
5.155000000000000000e+03 1.860003657698297230e+00 8.339972421137595404e+00 2.518256786083565915e-02 2.477237471974801791e-02 3.515186190674454703e-01
5.160000000000000000e+03 1.862077804573618600e+00 8.334700590028132794e+00 2.525602871269778948e-02 2.484378132262669847e-02 3.517675172360907321e-01
5.165000000000000000e+03 1.864153138218490602e+00 8.329443166966362000e+00 2.532963690965223114e-02 2.491532689728209390e-02 3.520161457222572010e-01
5.170000000000000000e+03 1.866229657373769557e+00 8.324200096905126856e+00 2.540339261185209016e-02 2.498701157725761318e-02 3.522645051711727482e-01
5.175000000000000000e+03 1.868307360782217819e+00 8.318971325067556322e+00 2.547729597947109154e-02 2.505883549605554192e-02 3.525125962272423474e-01
5.180000000000000000e+03 1.870386247188483342e+00 8.313756796945467542e+00 2.555134717270361733e-02 2.513079878713677870e-02 3.527604195340428017e-01
5.185000000000000000e+03 1.872466315339105902e+00 8.308556458297720937e+00 2.562554635176467199e-02 2.520290158392091487e-02 3.530079757343183577e-01
5.190000000000000000e+03 1.874547563982505771e+00 8.303370255148616152e+00 2.569989367689022586e-02 2.527514401978633862e-02 3.532552654699760430e-01
5.195000000000000000e+03 1.876629991868963065e+00 8.298198133786344854e+00 2.577438930833635816e-02 2.534752622806930172e-02 3.535022893820807255e-01
5.200000000000000000e+03 1.878713597750621078e+00 8.293040040761372467e+00 2.584903340637984687e-02 2.542004834206453706e-02 3.537490481108511720e-01
5.205000000000000000e+03 1.880798380381471180e+00 8.287895922884883859e+00 2.592382613131804722e-02 2.549271049502485967e-02 3.539955422956548303e-01
5.210000000000000000e+03 1.882884338517359257e+00 8.282765727227216601e+00 2.599876764346874258e-02 2.556551282016110080e-02 3.542417725750037216e-01
5.215000000000000000e+03 1.884971470915952851e+00 8.277649401116345729e+00 2.607385810316999175e-02 2.563845545064174017e-02 3.544877395865504432e-01
5.220000000000000000e+03 1.887059776336750483e+00 8.272546892136308117e+00 2.614909767078046551e-02 2.571153851959316269e-02 3.547334439670831174e-01
5.225000000000000000e+03 1.889149253541072992e+00 8.267458148125710338e+00 2.622448650667894010e-02 2.578476216009915889e-02 3.549788863525214500e-01
5.230000000000000000e+03 1.891239901292048442e+00 8.262383117176188563e+00 2.630002477126473087e-02 2.585812650520116426e-02 3.552240673779127333e-01
5.235000000000000000e+03 1.893331718354607007e+00 8.257321747630946618e+00 2.637571262495727945e-02 2.593163168789773890e-02 3.554689876774273505e-01
5.240000000000000000e+03 1.895424703495474539e+00 8.252273988083210554e+00 2.645155022819624738e-02 2.600527784114465071e-02 3.557136478843546112e-01
5.245000000000000000e+03 1.897518855483164568e+00 8.247239787374780917e+00 2.652753774144176943e-02 2.607906509785499691e-02 3.559580486310990888e-01
5.250000000000000000e+03 1.899614173087964764e+00 8.242219094594574358e+00 2.660367532517360009e-02 2.615299359089827066e-02 3.562021905491760676e-01
5.255000000000000000e+03 1.901710655081941814e+00 8.237211859077106624e+00 2.667996313989232440e-02 2.622706345310140894e-02 3.564460742692080464e-01
5.260000000000000000e+03 1.903808300238908791e+00 8.232218030401115882e+00 2.675640134611790774e-02 2.630127481724737343e-02 3.566897004209205191e-01
5.265000000000000000e+03 1.905907107334448014e+00 8.227237558388065253e+00 2.683299010439073665e-02 2.637562781607596246e-02 3.569330696331384223e-01
5.270000000000000000e+03 1.908007075145885079e+00 8.222270393100728825e+00 2.690972957527119902e-02 2.645012258228340504e-02 3.571761825337818608e-01
5.275000000000000000e+03 1.910108202452285964e+00 8.217316484841775903e+00 2.698661991933970147e-02 2.652475924852223943e-02 3.574190397498627214e-01
5.280000000000000000e+03 1.912210488034442823e+00 8.212375784152360580e+00 2.706366129719639177e-02 2.659953794740092803e-02 3.576616419074808984e-01
5.285000000000000000e+03 1.914313930674879538e+00 8.207448241810700651e+00 2.714085386946159598e-02 2.667445881148424597e-02 3.579039896318205738e-01
5.290000000000000000e+03 1.916418529157825512e+00 8.202533808830738238e+00 2.721819779677510029e-02 2.674952197329239639e-02 3.581460835471464987e-01
5.295000000000000000e+03 1.918524282269231440e+00 8.197632436460676075e+00 2.729569323979706003e-02 2.682472756530189517e-02 3.583879242768008289e-01
5.300000000000000000e+03 1.920631188796735334e+00 8.192744076181694979e+00 2.737334035920682349e-02 2.690007571994430455e-02 3.586295124431989056e-01
5.305000000000000000e+03 1.922739247529684725e+00 8.187868679706506114e+00 2.745113931570418789e-02 2.697556656960730867e-02 3.588708486678265919e-01
5.310000000000000000e+03 1.924848457259094037e+00 8.183006198978084456e+00 2.752909027000777914e-02 2.705120024663312805e-02 3.591119335712362748e-01
5.315000000000000000e+03 1.926958816777679884e+00 8.178156586168226383e+00 2.760719338285695310e-02 2.712697688332017798e-02 3.593527677730437020e-01
5.320000000000000000e+03 1.929070324879801124e+00 8.173319793676316891e+00 2.768544881500969307e-02 2.720289661192100070e-02 3.595933518919246508e-01
5.325000000000000000e+03 1.931182980361511703e+00 8.168495774127917386e+00 2.776385672724450068e-02 2.727895956464401750e-02 3.598336865456116529e-01
5.330000000000000000e+03 1.933296782020494264e+00 8.163684480373515129e+00 2.784241728035867156e-02 2.735516587365165522e-02 3.600737723508908861e-01
5.335000000000000000e+03 1.935411728656098562e+00 8.158885865487162548e+00 2.792113063516957552e-02 2.743151567106164382e-02 3.603136099235984546e-01
5.340000000000000000e+03 1.937527819069315038e+00 8.154099882765217799e+00 2.799999695251398704e-02 2.750800908894612817e-02 3.605531998786180581e-01
5.345000000000000000e+03 1.939645052062754615e+00 8.149326485725040925e+00 2.807901639324780763e-02 2.758464625933142525e-02 3.607925428298773274e-01
5.350000000000000000e+03 1.941763426440677121e+00 8.144565628103693555e+00 2.815818911824698526e-02 2.766142731419869716e-02 3.610316393903448828e-01
5.355000000000000000e+03 1.943882941008938881e+00 8.139817263856727436e+00 2.823751528840608496e-02 2.773835238548260848e-02 3.612704901720273920e-01
5.360000000000000000e+03 1.946003594575033357e+00 8.135081347156823739e+00 2.831699506463983620e-02 2.781542160507258915e-02 3.615090957859666276e-01
5.365000000000000000e+03 1.948125385948041854e+00 8.130357832392645534e+00 2.839662860788162019e-02 2.789263510481141198e-02 3.617474568422365255e-01
5.370000000000000000e+03 1.950248313938658384e+00 8.125646674167496641e+00 2.847641607908468070e-02 2.796999301649615369e-02 3.619855739499402980e-01
5.375000000000000000e+03 1.952372377359157696e+00 8.120947827298163446e+00 2.855635763922097572e-02 2.804749547187700837e-02 3.622234477172075473e-01
5.380000000000000000e+03 1.954497575023404821e+00 8.116261246813635921e+00 2.863645344928195460e-02 2.812514260265805768e-02 3.624610787511916010e-01
5.385000000000000000e+03 1.956623905746842862e+00 8.111586887953896152e+00 2.871670367027822496e-02 2.820293454049667414e-02 3.626984676580666811e-01
5.390000000000000000e+03 1.958751368346493660e+00 8.106924706168703310e+00 2.879710846323969842e-02 2.828087141700369456e-02 3.629356150430252947e-01
5.395000000000000000e+03 1.960879961640928038e+00 8.102274657116414147e+00 2.887766798921505632e-02 2.835895336374278167e-02 3.631725215102754589e-01
5.400000000000000000e+03 1.963009684450290671e+00 8.097636696662744882e+00 2.895838240927244706e-02 2.843718051223096538e-02 3.634091876630379803e-01
5.405000000000000000e+03 1.965140535596262117e+00 8.093010780879646759e+00 2.903925188449851813e-02 2.851555299393764356e-02 3.636456141035444012e-01
5.410000000000000000e+03 1.967272513902079911e+00 8.088396866044043065e+00 2.912027657599945696e-02 2.859407094028549451e-02 3.638818014330337802e-01
5.415000000000000000e+03 1.969405618192511698e+00 8.083794908636713572e+00 2.920145664490017556e-02 2.867273448264954713e-02 3.641177502517506381e-01
5.420000000000000000e+03 1.971539847293856784e+00 8.079204865341127473e+00 2.928279225234448752e-02 2.875154375235735096e-02 3.643534611589424044e-01
5.425000000000000000e+03 1.973675200033940591e+00 8.074626693042254999e+00 2.936428355949519120e-02 2.883049888068884084e-02 3.645889347528570856e-01
5.430000000000000000e+03 1.975811675242108434e+00 8.070060348825460750e+00 2.944593072753400390e-02 2.890959999887627793e-02 3.648241716307404903e-01
5.435000000000000000e+03 1.977949271749205984e+00 8.065505789975327744e+00 2.952773391766119401e-02 2.898884723810371197e-02 3.650591723888345630e-01
5.440000000000000000e+03 1.980087988387599696e+00 8.060962973974536538e+00 2.960969329109629580e-02 2.906824072950767862e-02 3.652939376223744428e-01
5.445000000000000000e+03 1.982227823991133731e+00 8.056431858502758558e+00 2.969180900907694362e-02 2.914778060417587413e-02 3.655284679255867974e-01
5.450000000000000000e+03 1.984368777395160155e+00 8.051912401435497912e+00 2.977408123286008970e-02 2.922746699314828292e-02 3.657627638916870483e-01
5.455000000000000000e+03 1.986510847436511407e+00 8.047404560843013144e+00 2.985651012372119578e-02 2.930730002741631368e-02 3.659968261128776490e-01
5.460000000000000000e+03 1.988654032953489637e+00 8.042908294989207008e+00 2.993909584295410126e-02 2.938727983792257040e-02 3.662306551803455879e-01
5.465000000000000000e+03 1.990798332785882474e+00 8.038423562330521577e+00 3.002183855187170666e-02 2.946740655556134847e-02 3.664642516842606668e-01
5.470000000000000000e+03 1.992943745774933717e+00 8.033950321514861770e+00 3.010473841180513754e-02 2.954768031117784716e-02 3.666976162137731698e-01
5.475000000000000000e+03 1.995090270763348439e+00 8.029488531380502891e+00 3.018779558410421629e-02 2.962810123556842978e-02 3.669307493570117540e-01
5.480000000000000000e+03 1.997237906595290768e+00 8.025038150955019489e+00 3.027101023013743092e-02 2.970866945948055435e-02 3.671636517010818945e-01
5.485000000000000000e+03 1.999386652116361240e+00 8.020599139454230198e+00 3.035438251129139037e-02 2.978938511361212127e-02 3.673963238320633873e-01
5.490000000000000000e+03 2.001536506173600571e+00 8.016171456281130148e+00 3.043791258897123042e-02 2.987024832861178217e-02 3.676287663350087942e-01
5.495000000000000000e+03 2.003687467615501205e+00 8.011755061024809166e+00 3.052160062460105433e-02 2.995125923507926599e-02 3.678609797939416115e-01
5.500000000000000000e+03 2.005839535291960907e+00 8.007349913459481883e+00 3.060544677962230911e-02 3.003241796356371715e-02 3.680929647918542713e-01
5.505000000000000000e+03 2.007992708054313180e+00 8.002955973543352641e+00 3.068945121549579436e-02 3.011372464456552045e-02 3.683247219107060877e-01
5.510000000000000000e+03 2.010146984755302846e+00 7.998573201417659817e+00 3.077361409369995179e-02 3.019517940853456636e-02 3.685562517314221465e-01
5.515000000000000000e+03 2.012302364249086928e+00 7.994201557405608227e+00 3.085793557573192347e-02 3.027678238587119472e-02 3.687875548338909737e-01
5.520000000000000000e+03 2.014458845391219999e+00 7.989841002011380588e+00 3.094241582310668787e-02 3.035853370692523021e-02 3.690186317969630925e-01
5.525000000000000000e+03 2.016616427038659509e+00 7.985491495919095684e+00 3.102705499735764275e-02 3.044043350199647849e-02 3.692494831984492465e-01
5.530000000000000000e+03 2.018775108049750244e+00 7.981152999991825148e+00 3.111185326003631721e-02 3.052248190133430988e-02 3.694801096151190123e-01
5.535000000000000000e+03 2.020934887284229209e+00 7.976825475270587162e+00 3.119681077271252781e-02 3.060467903513774957e-02 3.697105116226989674e-01
5.540000000000000000e+03 2.023095763603206088e+00 7.972508882973348143e+00 3.128192769697393794e-02 3.068702503355494327e-02 3.699406897958711360e-01
5.545000000000000000e+03 2.025257735869168130e+00 7.968203184494052849e+00 3.136720419442642904e-02 3.076952002668344524e-02 3.701706447082715457e-01
5.550000000000000000e+03 2.027420802945963718e+00 7.963908341401642055e+00 3.145264042669373983e-02 3.085216414456969092e-02 3.704003769324887840e-01
5.555000000000000000e+03 2.029584963698817468e+00 7.959624315439054243e+00 3.153823655541809073e-02 3.093495751720960751e-02 3.706298870400623335e-01
5.560000000000000000e+03 2.031750216994288483e+00 7.955351068522317881e+00 3.162399274225884821e-02 3.101790027454715340e-02 3.708591756014813501e-01
5.565000000000000000e+03 2.033916561700308545e+00 7.951088562739514920e+00 3.170990914889412066e-02 3.110099254647578568e-02 3.710882431861833863e-01
5.570000000000000000e+03 2.036083996686138597e+00 7.946836760349892614e+00 3.179598593701948167e-02 3.118423446283714526e-02 3.713170903625523933e-01
5.575000000000000000e+03 2.038252520822383396e+00 7.942595623782883862e+00 3.188222326834844883e-02 3.126762615342139340e-02 3.715457176979181653e-01
5.580000000000000000e+03 2.040422132980975967e+00 7.938365115637187053e+00 3.196862130461217144e-02 3.135116774796681965e-02 3.717741257585546188e-01
5.585000000000000000e+03 2.042592832035185602e+00 7.934145198679790845e+00 3.205518020756008973e-02 3.143485937616041087e-02 3.720023151096786274e-01
5.590000000000000000e+03 2.044764616859597872e+00 7.929935835845087766e+00 3.214190013895903975e-02 3.151870116763682422e-02 3.722302863154486330e-01
5.595000000000000000e+03 2.046937486330108413e+00 7.925736990233951396e+00 3.222878126059345455e-02 3.160269325197858498e-02 3.724580399389638141e-01
5.600000000000000000e+03 2.049111439323934025e+00 7.921548625112776243e+00 3.231582373426589161e-02 3.168683575871638486e-02 3.726855765422625311e-01
5.605000000000000000e+03 2.051286474719584696e+00 7.917370703912625984e+00 3.240302772179601970e-02 3.177112881732808980e-02 3.729128966863212158e-01
5.610000000000000000e+03 2.053462591396879589e+00 7.913203190228268902e+00 3.249039338502174301e-02 3.185557255723966280e-02 3.731400009310535948e-01
5.615000000000000000e+03 2.055639788236927945e+00 7.909046047817325231e+00 3.257792088579818113e-02 3.194016710782415780e-02 3.733668898353092458e-01
5.620000000000000000e+03 2.057818064122124646e+00 7.904899240599353227e+00 3.266561038599811312e-02 3.202491259840199028e-02 3.735935639568725986e-01
5.625000000000000000e+03 2.059997417936141773e+00 7.900762732654979636e+00 3.275346204751155427e-02 3.210980915824043769e-02 3.738200238524622132e-01
5.630000000000000000e+03 2.062177848563943261e+00 7.896636488224975103e+00 3.284147603224664425e-02 3.219485691655443738e-02 3.740462700777293370e-01
5.635000000000000000e+03 2.064359354891752485e+00 7.892520471709431717e+00 3.292965250212841893e-02 3.228005600250525436e-02 3.742723031872572936e-01
5.640000000000000000e+03 2.066541935807064689e+00 7.888414647666865065e+00 3.301799161909958757e-02 3.236540654520114746e-02 3.744981237345602620e-01
5.645000000000000000e+03 2.068725590198631448e+00 7.884318980813341149e+00 3.310649354512024828e-02 3.245090867369702925e-02 3.747237322720827213e-01
5.650000000000000000e+03 2.070910316956460218e+00 7.880233436021648608e+00 3.319515844216776312e-02 3.253656251699419549e-02 3.749491293511982848e-01
5.655000000000000000e+03 2.073096114971810344e+00 7.876157978320414088e+00 3.328398647223675122e-02 3.262236820404030430e-02 3.751743155222087567e-01
5.660000000000000000e+03 2.075282983137183290e+00 7.872092572893271800e+00 3.337297779733926217e-02 3.270832586372929979e-02 3.753992913343437987e-01
5.665000000000000000e+03 2.077470920346325745e+00 7.868037185078008200e+00 3.346213257950476916e-02 3.279443562490146069e-02 3.756240573357595980e-01
5.670000000000000000e+03 2.079659925494215411e+00 7.863991780365731543e+00 3.355145098077980809e-02 3.288069761634287991e-02 3.758486140735383674e-01
5.675000000000000000e+03 2.081849997477049463e+00 7.859956324400059202e+00 3.364093316322773475e-02 3.296711196678513145e-02 3.760729620936876239e-01
5.680000000000000000e+03 2.084041135192265415e+00 7.855930782976249027e+00 3.373057928892977952e-02 3.305367880490620025e-02 3.762971019411392448e-01
5.685000000000000000e+03 2.086233337538502486e+00 7.851915122040424855e+00 3.382038951998368737e-02 3.314039825932906663e-02 3.765210341597490795e-01
5.690000000000000000e+03 2.088426603415630023e+00 7.847909307688706981e+00 3.391036401850477250e-02 3.322727045862264306e-02 3.767447592922961719e-01
5.695000000000000000e+03 2.090620931724709308e+00 7.843913306166466093e+00 3.400050294662510658e-02 3.331429553130087901e-02 3.769682778804819834e-01
5.700000000000000000e+03 2.092816321368011767e+00 7.839927083867469726e+00 3.409080646649369911e-02 3.340147360582282343e-02 3.771915904649299489e-01
5.705000000000000000e+03 2.095012771249011863e+00 7.835950607333082907e+00 3.418127474027703172e-02 3.348880481059307579e-02 3.774146975851849217e-01
5.710000000000000000e+03 2.097210280272365779e+00 7.831983843251507871e+00 3.427190793015806591e-02 3.357628927396068275e-02 3.776375997797125628e-01
5.715000000000000000e+03 2.099408847343922968e+00 7.828026758456961609e+00 3.436270619833680512e-02 3.366392712421963085e-02 3.778602975858985635e-01
5.720000000000000000e+03 2.101608471370716380e+00 7.824079319928898713e+00 3.445366970703038489e-02 3.375171848960881182e-02 3.780827915400485906e-01
5.725000000000000000e+03 2.103809151260958465e+00 7.820141494791232439e+00 3.454479861847267741e-02 3.383966349831153686e-02 3.783050821773875638e-01
5.730000000000000000e+03 2.106010885924029630e+00 7.816213250311565552e+00 3.463609309491436083e-02 3.392776227845550191e-02 3.785271700320591570e-01
5.735000000000000000e+03 2.108213674270472904e+00 7.812294553900423821e+00 3.472755329862262791e-02 3.401601495811244769e-02 3.787490556371253536e-01
5.740000000000000000e+03 2.110417515212010375e+00 7.808385373110456662e+00 3.481917939188217126e-02 3.410442166529894376e-02 3.789707395245663912e-01
5.745000000000000000e+03 2.112622407661500112e+00 7.804485675635730146e+00 3.491097153699349032e-02 3.419298252797476484e-02 3.791922222252796515e-01
5.750000000000000000e+03 2.114828350532977019e+00 7.800595429310909878e+00 3.500292989627471624e-02 3.428169767404436880e-02 3.794135042690802706e-01
5.755000000000000000e+03 2.117035342741605319e+00 7.796714602110571768e+00 3.509505463206005760e-02 3.437056723135552272e-02 3.796345861846999181e-01
5.760000000000000000e+03 2.119243383203698539e+00 7.792843162148411551e+00 3.518734590670042489e-02 3.445959132769960825e-02 3.798554684997869635e-01
5.765000000000000000e+03 2.121452470836705295e+00 7.788981077676527143e+00 3.527980388256345134e-02 3.454877009081169792e-02 3.800761517409060319e-01
5.770000000000000000e+03 2.123662604559219069e+00 7.785128317084659244e+00 3.537242872203345823e-02 3.463810364837034000e-02 3.802966364335378935e-01
5.775000000000000000e+03 2.125873783290943564e+00 7.781284848899483464e+00 3.546522058751101075e-02 3.472759212799700346e-02 3.805169231020789633e-01
5.780000000000000000e+03 2.128086005952722459e+00 7.777450641783866914e+00 3.555817964141344545e-02 3.481723565725658442e-02 3.807370122698413573e-01
5.785000000000000000e+03 2.130299271466514099e+00 7.773625664536143454e+00 3.565130604617458565e-02 3.490703436365693441e-02 3.809569044590525033e-01
5.790000000000000000e+03 2.132513578755384831e+00 7.769809886089414697e+00 3.574459996424440844e-02 3.499698837464852025e-02 3.811766001908549750e-01
5.795000000000000000e+03 2.134728926743514332e+00 7.766003275510816373e+00 3.583806155808951649e-02 3.508709781762472252e-02 3.813960999853064915e-01
5.800000000000000000e+03 2.136945314356188508e+00 7.762205802000810451e+00 3.593169099019293683e-02 3.517736281992157876e-02 3.816154043613796953e-01
5.805000000000000000e+03 2.139162740519801709e+00 7.758417434892478148e+00 3.602548842305419718e-02 3.526778350881772800e-02 3.818345138369619862e-01
5.810000000000000000e+03 2.141381204161820762e+00 7.754638143650848470e+00 3.611945401918853493e-02 3.535836001153359193e-02 3.820534289288554097e-01
5.815000000000000000e+03 2.143600704210829822e+00 7.750867897872155687e+00 3.621358794112823631e-02 3.544909245523247820e-02 3.822721501527768240e-01
5.820000000000000000e+03 2.145821239596482410e+00 7.747106667283177650e+00 3.630789035142129723e-02 3.553998096701933840e-02 3.824906780233576775e-01
5.825000000000000000e+03 2.148042809249518292e+00 7.743354421740539451e+00 3.640236141263219344e-02 3.563102567394123982e-02 3.827090130541438429e-01
5.830000000000000000e+03 2.150265412101752371e+00 7.739611131230041075e+00 3.649700128734140181e-02 3.572222670298692837e-02 3.829271557575959495e-01
5.835000000000000000e+03 2.152489047086077800e+00 7.735876765865949523e+00 3.659181013814578193e-02 3.581358418108709918e-02 3.831451066450891618e-01
5.840000000000000000e+03 2.154713713136456654e+00 7.732151295890347775e+00 3.668678812765835406e-02 3.590509823511393861e-02 3.833628662269132903e-01
5.845000000000000000e+03 2.156939409187910162e+00 7.728434691672460666e+00 3.678193541850813264e-02 3.599676899188105489e-02 3.835804350122728468e-01
5.850000000000000000e+03 2.159166134176511154e+00 7.724726923707996740e+00 3.687725217333994582e-02 3.608859657814307564e-02 3.837978135092871002e-01
5.855000000000000000e+03 2.161393887039400497e+00 7.721027962618461693e+00 3.697273855481489346e-02 3.618058112059607118e-02 3.840150022249902428e-01
5.860000000000000000e+03 2.163622666714766662e+00 7.717337779150503785e+00 3.706839472561036797e-02 3.627272274587737405e-02 3.842320016653313908e-01
5.865000000000000000e+03 2.165852472141834628e+00 7.713656344175296553e+00 3.716422084841904117e-02 3.636502158056460071e-02 3.844488123351749165e-01
5.870000000000000000e+03 2.168083302260882750e+00 7.709983628687831825e+00 3.726021708595025211e-02 3.645747775117686579e-02 3.846654347383003381e-01
5.875000000000000000e+03 2.170315156013221003e+00 7.706319603806313978e+00 3.735638360092896626e-02 3.655009138417363024e-02 3.848818693774027633e-01
5.880000000000000000e+03 2.172548032341185209e+00 7.702664240771517790e+00 3.745272055609562278e-02 3.664286260595452094e-02 3.850981167540927785e-01
5.885000000000000000e+03 2.174781930188155243e+00 7.699017510946111642e+00 3.754922811420730033e-02 3.673579154286032294e-02 3.853141773688970595e-01
5.890000000000000000e+03 2.177016848498519064e+00 7.695379385814068662e+00 3.764590643803619047e-02 3.682887832117137661e-02 3.855300517212583156e-01
5.895000000000000000e+03 2.179252786217691806e+00 7.691749836980020127e+00 3.774275569037058992e-02 3.692212306710847963e-02 3.857457403095355120e-01
5.900000000000000000e+03 2.181489742292105127e+00 7.688128836168605318e+00 3.783977603401465079e-02 3.701552590683258870e-02 3.859612436310043693e-01
5.905000000000000000e+03 2.183727715669194769e+00 7.684516355223890649e+00 3.793696763178785319e-02 3.710908696644408394e-02 3.861765621818574745e-01
5.910000000000000000e+03 2.185966705297413437e+00 7.680912366108708866e+00 3.803433064652591428e-02 3.720280637198365714e-02 3.863916964572047252e-01
5.915000000000000000e+03 2.188206710126206822e+00 7.677316840904075512e+00 3.813186524107981673e-02 3.729668424943120841e-02 3.866066469510733850e-01
5.920000000000000000e+03 2.190447729106020702e+00 7.673729751808577859e+00 3.822957157831596842e-02 3.739072072470596420e-02 3.868214141564085828e-01
5.925000000000000000e+03 2.192689761188305830e+00 7.670151071137718546e+00 3.832744982111730564e-02 3.748491592366738623e-02 3.870359985650739243e-01
5.930000000000000000e+03 2.194932805325481073e+00 7.666580771323393328e+00 3.842550013238105189e-02 3.757926997211292336e-02 3.872504006678516020e-01
5.935000000000000000e+03 2.197176860470973825e+00 7.663018824913202742e+00 3.852372267502106318e-02 3.767378299578020423e-02 3.874646209544425624e-01
5.940000000000000000e+03 2.199421925579175596e+00 7.659465204569933405e+00 3.862211761196602394e-02 3.776845512034512214e-02 3.876786599134673938e-01
5.945000000000000000e+03 2.201667999605471326e+00 7.655919883070899878e+00 3.872068510616071685e-02 3.786328647142307019e-02 3.878925180324665489e-01
5.950000000000000000e+03 2.203915081506196749e+00 7.652382833307417975e+00 3.881942532056436440e-02 3.795827717456714406e-02 3.881061957979005106e-01
5.955000000000000000e+03 2.206163170238685467e+00 7.648854028284150175e+00 3.891833841815287021e-02 3.805342735527027231e-02 3.883196936951508471e-01
5.960000000000000000e+03 2.208412264761210331e+00 7.645333441118587814e+00 3.901742456191645281e-02 3.814873713896275303e-02 3.885330122085202120e-01
5.965000000000000000e+03 2.210662364033018523e+00 7.641821045040431137e+00 3.911668391486122082e-02 3.824420665101376654e-02 3.887461518212327882e-01
5.970000000000000000e+03 2.212913467014314683e+00 7.638316813391019089e+00 3.921611664000859004e-02 3.833983601673064678e-02 3.889591130154353427e-01
5.975000000000000000e+03 2.215165572666248472e+00 7.634820719622779528e+00 3.931572290039510309e-02 3.843562536135864544e-02 3.891718962721971709e-01
5.980000000000000000e+03 2.217418679950927007e+00 7.631332737298641256e+00 3.941550285907265833e-02 3.853157481008104984e-02 3.893845020715108185e-01
