#[MATERIAL DEFINITION FOR MC-GPU: interaction mean free path and sampling data from PENELOPE 2006]
#[MATERIAL NAME]
# PMP(C6H12)
#[NOMINAL DENSITY (g/cm^3)]
# 0.83
#[NUMBER OF DATA VALUES]
# 24001
#[MEAN FREE PATHS (cm)]
#[Energy (eV)     | Rayleigh        | Compton         | Photoelectric   | TOTAL (+pair prod) (cm) | Rayleigh: max cumul prob F^2]
5.000000000000000000e+03 3.772806499139415681e+00 9.288041736247700797e+00 7.539771505010421648e-02 7.333678733872936450e-02 3.348317028654869687e-01
5.005000000000000000e+03 3.777149198850724865e+00 9.282939743489528439e+00 7.563287482801296646e-02 7.356057687509942600e-02 3.350803162534425894e-01
5.010000000000000000e+03 3.781493196119751765e+00 9.277852456067542164e+00 7.586854417611807455e-02 7.378482385470733207e-02 3.353288016426291263e-01
5.015000000000000000e+03 3.785838487221303339e+00 9.272779813747275668e+00 7.610472372274441899e-02 7.400952871425493795e-02 3.355771596065907358e-01
5.020000000000000000e+03 3.790185068435173221e+00 9.267721756603430450e+00 7.634141409642863918e-02 7.423469189012371627e-02 3.358253907169125307e-01
5.025000000000000000e+03 3.794532936046114635e+00 9.262678225017937805e+00 7.657861592591740096e-02 7.446031381837214802e-02 3.360734955432244653e-01
5.030000000000000000e+03 3.798882086343870590e+00 9.257649159677990625e+00 7.681632984017054688e-02 7.468639493473770707e-02 3.363214746532041666e-01
5.035000000000000000e+03 3.803232515623121479e+00 9.252634501574192427e+00 7.705455646835790429e-02 7.491293567463300218e-02 3.365693286125812644e-01
5.040000000000000000e+03 3.807584220183497514e+00 9.247634191998630016e+00 7.729329643986151965e-02 7.513993647314673452e-02 3.368170579851404445e-01
5.045000000000000000e+03 3.811937196329537869e+00 9.242648172543022511e+00 7.753255038427364632e-02 7.536739776504092214e-02 3.370646633327251673e-01
5.050000000000000000e+03 3.816291440370700894e+00 9.237676385096829534e+00 7.777231893139779917e-02 7.559531998475084447e-02 3.373121452152410549e-01
5.055000000000000000e+03 3.820646948621358785e+00 9.232718771845398464e+00 7.801260271124922652e-02 7.582370356638466757e-02 3.375595041906599425e-01
5.060000000000000000e+03 3.825003717400745629e+00 9.227775275268166766e+00 7.825340235405253697e-02 7.605254894372001639e-02 3.378067408150230433e-01
5.065000000000000000e+03 3.829361743032996035e+00 9.222845838136784380e+00 7.849471849024491910e-02 7.628185655020615352e-02 3.380538556424447783e-01
5.070000000000000000e+03 3.833721021847083410e+00 9.217930403513344473e+00 7.873655175047286625e-02 7.651162681895987139e-02 3.383008492251163846e-01
5.075000000000000000e+03 3.838081550176847045e+00 9.213028914748564446e+00 7.897890276559407785e-02 7.674186018276633880e-02 3.385477221133094683e-01
5.080000000000000000e+03 3.842443324360959256e+00 9.208141315479998923e+00 7.922177216667704303e-02 7.697255707407776870e-02 3.387944748553797236e-01
5.085000000000000000e+03 3.846806340742916497e+00 9.203267549630291811e+00 7.946516058500044388e-02 7.720371792501171115e-02 3.390411079977707076e-01
5.090000000000000000e+03 3.851170595671021157e+00 9.198407561405387511e+00 7.970906865205321101e-02 7.743534316735024847e-02 3.392876220850174485e-01
5.095000000000000000e+03 3.855536085498380672e+00 9.193561295292825619e+00 7.995349699953455125e-02 7.766743323253907927e-02 3.395340176597498316e-01
5.100000000000000000e+03 3.859902806582897750e+00 9.188728696059941470e+00 8.019844625935455829e-02 7.789998855168693559e-02 3.397802952626969852e-01
5.105000000000000000e+03 3.864270755287241066e+00 9.183909708752223011e+00 8.044391706363272776e-02 7.813300955556341798e-02 3.400264554326902222e-01
5.110000000000000000e+03 3.868639927978840820e+00 9.179104278691550434e+00 8.068991004469869277e-02 7.836649667459852364e-02 3.402724987066673146e-01
5.115000000000000000e+03 3.873010321029906500e+00 9.174312351474512184e+00 8.093642583509326471e-02 7.860045033888281296e-02 3.405184256196759351e-01
5.120000000000000000e+03 3.877381930817356714e+00 9.169533872970735189e+00 8.118346506756576875e-02 7.883487097816366251e-02 3.407642367048775989e-01
5.125000000000000000e+03 3.881754753722850726e+00 9.164768789321207976e+00 8.143102837507583402e-02 7.906975902184620875e-02 3.410099324935511045e-01
5.130000000000000000e+03 3.886128786132760027e+00 9.160017046936618001e+00 8.167911639079260266e-02 7.930511489899158550e-02 3.412555135150968089e-01
5.135000000000000000e+03 3.890504024438178554e+00 9.155278592495685430e+00 8.192772974809589548e-02 7.954093903831685464e-02 3.415009802970396802e-01
5.140000000000000000e+03 3.894880465034879613e+00 9.150553372943573294e+00 8.217686908057428297e-02 7.977723186819239698e-02 3.417463333650338497e-01
5.145000000000000000e+03 3.899258104323307439e+00 9.145841335490242585e+00 8.242653502202522409e-02 8.001399381664098254e-02 3.419915732428657762e-01
5.150000000000000000e+03 3.903636938708617610e+00 9.141142427608796694e+00 8.267672820645785570e-02 8.025122531133939419e-02 3.422367004524584089e-01
5.155000000000000000e+03 3.908016964600580678e+00 9.136456597033971505e+00 8.292744926808814920e-02 8.048892677961280717e-02 3.424817155138747959e-01
5.160000000000000000e+03 3.912398178413640792e+00 9.131783791760474500e+00 8.317869884134286573e-02 8.072709864843777283e-02 3.427266189453219147e-01
5.165000000000000000e+03 3.916780576566875283e+00 9.127123960041423345e+00 8.343047756085769651e-02 8.096574134443922099e-02 3.429714112631546685e-01
5.170000000000000000e+03 3.921164155483985336e+00 9.122477050386800457e+00 8.368278606147726284e-02 8.120485529388955792e-02 3.432160929818795503e-01
5.175000000000000000e+03 3.925548911593295998e+00 9.117843011561872046e+00 8.393562497825574065e-02 8.144444092270830549e-02 3.434606646141584729e-01
5.180000000000000000e+03 3.929934841327718420e+00 9.113221792585676440e+00 8.418899494645536163e-02 8.168449865645964481e-02 3.437051266708124886e-01
5.185000000000000000e+03 3.934321941124768962e+00 9.108613342729462659e+00 8.444289660154789823e-02 8.192502892035283257e-02 3.439494796608260629e-01
5.190000000000000000e+03 3.938710207426557641e+00 9.104017611515160979e+00 8.469733057921448316e-02 8.216603213924110471e-02 3.441937240913504059e-01
5.195000000000000000e+03 3.943099636679748166e+00 9.099434548713926318e+00 8.495229751534404128e-02 8.240750873761902573e-02 3.444378604677076905e-01
5.200000000000000000e+03 3.947490225335567260e+00 9.094864104344575040e+00 8.520779804603455243e-02 8.264945913962291890e-02 3.446818892933948275e-01
5.205000000000000000e+03 3.951881969849796672e+00 9.090306228672137223e+00 8.546383280759246859e-02 8.289188376902921485e-02 3.449258110700871849e-01
5.210000000000000000e+03 3.956274866682766511e+00 9.085760872206348537e+00 8.572040243653317182e-02 8.313478304925384088e-02 3.451696262976425844e-01
5.215000000000000000e+03 3.960668912299318833e+00 9.081227985700218497e+00 8.597750756958011387e-02 8.337815740335044468e-02 3.454133354741054096e-01
5.220000000000000000e+03 3.965064103168822296e+00 9.076707520148534769e+00 8.623514884366501043e-02 8.362200725400970036e-02 3.456569390957099919e-01
5.225000000000000000e+03 3.969460435765153505e+00 9.072199426786440313e+00 8.649332689592796608e-02 8.386633302355829545e-02 3.459004376568848294e-01
5.230000000000000000e+03 3.973857906566692577e+00 9.067703657087978542e+00 8.675204236371783506e-02 8.411113513395822305e-02 3.461438316502565837e-01
5.235000000000000000e+03 3.978256512056292049e+00 9.063220162764697108e+00 8.701129588459063924e-02 8.435641400680449209e-02 3.463871215666537440e-01
5.240000000000000000e+03 3.982656248721295977e+00 9.058748895764189513e+00 8.727108809631102526e-02 8.460217006332537704e-02 3.466303078951104566e-01
5.245000000000000000e+03 3.987057113053519064e+00 9.054289808268705997e+00 8.753141963685233395e-02 8.484840372438151590e-02 3.468733911228708555e-01
5.250000000000000000e+03 3.991459101549208910e+00 9.049842852693787520e+00 8.779229114439404680e-02 8.509511541046248240e-02 3.471163717353926703e-01
5.255000000000000000e+03 3.995862210709096640e+00 9.045407981686809151e+00 8.805370325732547743e-02 8.534230554168927008e-02 3.473592502163509455e-01
5.260000000000000000e+03 4.000266437038310308e+00 9.040985148125683324e+00 8.831565661424187197e-02 8.558997453780964326e-02 3.476020270476425367e-01
5.265000000000000000e+03 4.004671777046427295e+00 9.036574305117431649e+00 8.857815185394707358e-02 8.583812281819969137e-02 3.478447027093896082e-01
5.270000000000000000e+03 4.009078227247440118e+00 9.032175405996847317e+00 8.884118961545257875e-02 8.608675080186183048e-02 3.480872776799436297e-01
5.275000000000000000e+03 4.013485784159752434e+00 9.027788404325139737e+00 8.910477053797752345e-02 8.633585890742387359e-02 3.483297524358893726e-01
5.280000000000000000e+03 4.017894444306152835e+00 9.023413253888623586e+00 8.936889526094786429e-02 8.658544755313726804e-02 3.485721274520488522e-01
5.285000000000000000e+03 4.022304204213832612e+00 9.019049908697340356e+00 8.963356442399775248e-02 8.683551715687731765e-02 3.488144032014852680e-01
5.290000000000000000e+03 4.026715060414336911e+00 9.014698322983793588e+00 8.989877866696738273e-02 8.708606813614021280e-02 3.490565801555067793e-01
5.295000000000000000e+03 4.031127009443610909e+00 9.010358451201577523e+00 9.016453862990596313e-02 8.733710090804479298e-02 3.492986587836708345e-01
5.300000000000000000e+03 4.035540047841925215e+00 9.006030248024135432e+00 9.043084495306788484e-02 8.758861588932803643e-02 3.495406395537876687e-01
5.305000000000000000e+03 4.039954172153939815e+00 9.001713668343409580e+00 9.069769827691680220e-02 8.784061349634768312e-02 3.497825229319246887e-01
5.310000000000000000e+03 4.044369378928601044e+00 8.997408667268611993e+00 9.096509924212052567e-02 8.809309414507675295e-02 3.500243093824099705e-01
5.315000000000000000e+03 4.048785664719244615e+00 8.993115200124883302e+00 9.123304848955725299e-02 8.834605825110806998e-02 3.502659993678366446e-01
5.320000000000000000e+03 4.053203026083470384e+00 8.988833222452115024e+00 9.150154666030831108e-02 8.859950622964667122e-02 3.505075933490665041e-01
5.325000000000000000e+03 4.057621459583244494e+00 8.984562690003581764e+00 9.177059439566528920e-02 8.885343849551537165e-02 3.507490917852343348e-01
5.330000000000000000e+03 4.062040961784784798e+00 8.980303558744809678e+00 9.204019233712376624e-02 8.910785546314793637e-02 3.509904951337515233e-01
5.335000000000000000e+03 4.066461529258634577e+00 8.976055784852238872e+00 9.231034112638750178e-02 8.936275754659198101e-02 3.512318038503101647e-01
5.340000000000000000e+03 4.070883158579619021e+00 8.971819324712033250e+00 9.258104140536663196e-02 8.961814515950627946e-02 3.514730183888871706e-01
5.345000000000000000e+03 4.075305846326813253e+00 8.967594134918885018e+00 9.285229381617651767e-02 8.987401871515879326e-02 3.517141392017478774e-01
5.350000000000000000e+03 4.079729589083600061e+00 8.963380172274723279e+00 9.312409900114125560e-02 9.013037862642868381e-02 3.519551667394504868e-01
5.355000000000000000e+03 4.084154383437566871e+00 8.959177393787614463e+00 9.339645760278825204e-02 9.038722530580049763e-02 3.521961014508495080e-01
5.360000000000000000e+03 4.088580225980599003e+00 8.954985756670431840e+00 9.366937026385417642e-02 9.064455916536862112e-02 3.524369437831002538e-01
5.365000000000000000e+03 4.093007113308781975e+00 8.950805218339805691e+00 9.394283762727946574e-02 9.090238061683113269e-02 3.526776941816623379e-01
5.370000000000000000e+03 4.097435042022464557e+00 8.946635736414814133e+00 9.421686033621272383e-02 9.116069007149293912e-02 3.529183530903041155e-01
5.375000000000000000e+03 4.101864008726184174e+00 8.942477268715915528e+00 9.449143903400661348e-02 9.141948794026086289e-02 3.531589209511061811e-01
5.380000000000000000e+03 4.106294010028707753e+00 8.938329773263715694e+00 9.476657436422084024e-02 9.167877463364540458e-02 3.533993982044656978e-01
5.385000000000000000e+03 4.110725042543004193e+00 8.934193208277827480e+00 9.504226697062073681e-02 9.193855056175871676e-02 3.536397852891001170e-01
5.390000000000000000e+03 4.115157102886246143e+00 8.930067532175726797e+00 9.531851749717816513e-02 9.219881613431395173e-02 3.538800826420514523e-01
5.395000000000000000e+03 4.119590187679772697e+00 8.925952703571613966e+00 9.559532658806935146e-02 9.245957176062258309e-02 3.541202906986899990e-01
5.400000000000000000e+03 4.124024293549124920e+00 8.921848681275259096e+00 9.587269488767756476e-02 9.272081784959584905e-02 3.543604098927183310e-01
5.405000000000000000e+03 4.128459417123982789e+00 8.917755424290922051e+00 9.615062304059014686e-02 9.298255480974079723e-02 3.546004406561753530e-01
5.410000000000000000e+03 4.132895555038211377e+00 8.913672891816164068e+00 9.642911169160137130e-02 9.324478304916213045e-02 3.548403834194402418e-01
5.415000000000000000e+03 4.137332703929823552e+00 8.909601043240794382e+00 9.670816148571009796e-02 9.350750297555897317e-02 3.550802386112364428e-01
5.420000000000000000e+03 4.141770860440963986e+00 8.905539838145754672e+00 9.698777306812084165e-02 9.377071499622477435e-02 3.553200066586355566e-01
5.425000000000000000e+03 4.146210021217930475e+00 8.901489236301992847e+00 9.726794708424353619e-02 9.403441951804608623e-02 3.555596879870616123e-01
5.430000000000000000e+03 4.150650182911140185e+00 8.897449197669411447e+00 9.754868417969322913e-02 9.429861694750149570e-02 3.557992830202942880e-01
5.435000000000000000e+03 4.155091342175117219e+00 8.893419682395782289e+00 9.782998500028952660e-02 9.456330769065969533e-02 3.560387921804739619e-01
5.440000000000000000e+03 4.159533495668521041e+00 8.889400650815630911e+00 9.811185019205868885e-02 9.482849215318080172e-02 3.562782158881047656e-01
5.445000000000000000e+03 4.163976640054086076e+00 8.885392063449240041e+00 9.839428040122946695e-02 9.509417074031120687e-02 3.565175545620590247e-01
5.450000000000000000e+03 4.168420771998661678e+00 8.881393881001523383e+00 9.867727627423789061e-02 9.536034385688725579e-02 3.567568086195810340e-01
5.455000000000000000e+03 4.172865888173181048e+00 8.877406064361005988e+00 9.896083845772399301e-02 9.562701190733086110e-02 3.569959784762911092e-01
5.460000000000000000e+03 4.177311985252639026e+00 8.873428574598790419e+00 9.924496759853193573e-02 9.589417529564898957e-02 3.572350645461894181e-01
5.465000000000000000e+03 4.181759059916124066e+00 8.869461372967478496e+00 9.952966434371172955e-02 9.616183442543398130e-02 3.574740672416603093e-01
5.470000000000000000e+03 4.186207108846769387e+00 8.865504420900185423e+00 9.981492934051705568e-02 9.642998969986063540e-02 3.577129869734756995e-01
5.475000000000000000e+03 4.190656128731768071e+00 8.861557680009481075e+00 1.001007632364065980e-01 9.669864152168629323e-02 3.579518241507995135e-01
5.480000000000000000e+03 4.195106116262369511e+00 8.857621112086384585e+00 1.003871666790441819e-01 9.696779029325024168e-02 3.581905791811914597e-01
5.485000000000000000e+03 4.199557068133841220e+00 8.853694679099366027e+00 1.006741403162966925e-01 9.723743641647031311e-02 3.584292524706110261e-01
5.490000000000000000e+03 4.204008981045488369e+00 8.849778343193339225e+00 1.009616847962353514e-01 9.750758029284356532e-02 3.586678444234212004e-01
5.495000000000000000e+03 4.208461851700663559e+00 8.845872066688610147e+00 1.012498007671382844e-01 9.777822232344737796e-02 3.589063554423929103e-01
5.500000000000000000e+03 4.212915676806688658e+00 8.841975812080002939e+00 1.015384888774838318e-01 9.804936290893208339e-02 3.591447859287085209e-01
5.505000000000000000e+03 4.217370453074937409e+00 8.838089542035746149e+00 1.018277497759576822e-01 9.832100244952690637e-02 3.593831362819657760e-01
5.510000000000000000e+03 4.221826177220755483e+00 8.834213219396588102e+00 1.021175841114478483e-01 9.859314134503410765e-02 3.596214069001822944e-01
5.515000000000000000e+03 4.226282845963497792e+00 8.830346807174780821e+00 1.024079925330474289e-01 9.886577999483059376e-02 3.598595981797987897e-01
5.520000000000000000e+03 4.230740456026487628e+00 8.826490268553140339e+00 1.026989756900523326e-01 9.913891879786458639e-02 3.600977105156836222e-01
5.525000000000000000e+03 4.235199004137032652e+00 8.822643566884069699e+00 1.029905342319628742e-01 9.941255815265645501e-02 3.603357443011360184e-01
5.530000000000000000e+03 4.239658487026414235e+00 8.818806665688608604e+00 1.032826688084831634e-01 9.968669845729671852e-02 3.605736999278908450e-01
5.535000000000000000e+03 4.244118901429876800e+00 8.814979528655509711e+00 1.035753800695211058e-01 9.996134010944546233e-02 3.608115777861221618e-01
5.540000000000000000e+03 4.248580244086612723e+00 8.811162119640266965e+00 1.038686686651880409e-01 1.002364835063306731e-01 3.610493782644467742e-01
5.545000000000000000e+03 4.253042511739764109e+00 8.807354402664211435e+00 1.041625352457988263e-01 1.005121290447472948e-01 3.612871017499287851e-01
5.550000000000000000e+03 4.257505701136409471e+00 8.803556341913582273e+00 1.044569804618714626e-01 1.007882771210560913e-01 3.615247486280831479e-01
5.555000000000000000e+03 4.261969809027580602e+00 8.799767901738567488e+00 1.047520049641291334e-01 1.010649281311843950e-01 3.617623192828796630e-01
5.560000000000000000e+03 4.266434832168195967e+00 8.795989046652460175e+00 1.050476094034952790e-01 1.013420824706203621e-01 3.619998140967468636e-01
5.565000000000000000e+03 4.270900767317133528e+00 8.792219741330670857e+00 1.053437944310995356e-01 1.016197405344178850e-01 3.622372334505761793e-01
5.570000000000000000e+03 4.275367611237157028e+00 8.788459950609892601e+00 1.056405606982731837e-01 1.018979027171908330e-01 3.624745777237253219e-01
5.575000000000000000e+03 4.279835360694941748e+00 8.784709639487157773e+00 1.059379088565513272e-01 1.021765694131144264e-01 3.627118472940226157e-01
5.580000000000000000e+03 4.284304012461046973e+00 8.780968773118985382e+00 1.062358395576707693e-01 1.024557410159221693e-01 3.629490425377710494e-01
5.585000000000000000e+03 4.288773563309954184e+00 8.777237316820452051e+00 1.065343534535735798e-01 1.027354179189079730e-01 3.631861638297515515e-01
5.590000000000000000e+03 4.293244010019994228e+00 8.773515236064353573e+00 1.068334511964031397e-01 1.030156005149217430e-01 3.634232115432273202e-01
5.595000000000000000e+03 4.297715349373382843e+00 8.769802496480318510e+00 1.071331334385053208e-01 1.032962891963692398e-01 3.636601860499478200e-01
5.600000000000000000e+03 4.302187578156218883e+00 8.766099063853927120e+00 1.074334008324306505e-01 1.035774843552131480e-01 3.638970877201523346e-01
5.605000000000000000e+03 4.306660693158438136e+00 8.762404904125874694e+00 1.077342540309299546e-01 1.038591863829679829e-01 3.641339169225739636e-01
5.610000000000000000e+03 4.311134691173849731e+00 8.758719983391088704e+00 1.080356936869586865e-01 1.041413956707032129e-01 3.643706740244436748e-01
5.615000000000000000e+03 4.315609569000107726e+00 8.755044267897895693e+00 1.083377204536741661e-01 1.044241126090394017e-01 3.646073593914939681e-01
5.620000000000000000e+03 4.320085323438709324e+00 8.751377724047166851e+00 1.086403349844361627e-01 1.047073375881480695e-01 3.648439733879627611e-01
5.625000000000000000e+03 4.324561951294959350e+00 8.747720318391506211e+00 1.089435379328059922e-01 1.049910709977495971e-01 3.650805163765974415e-01
5.630000000000000000e+03 4.329039449378035975e+00 8.744072017634362481e+00 1.092473299525495156e-01 1.052753132271150999e-01 3.653169887186585862e-01
5.635000000000000000e+03 4.333517814500905452e+00 8.740432788629254546e+00 1.095517116976329614e-01 1.055600646650614316e-01 3.655533907739237920e-01
5.640000000000000000e+03 4.337997043480352310e+00 8.736802598378908158e+00 1.098566838222253816e-01 1.058453256999525721e-01 3.657897229006915052e-01
5.645000000000000000e+03 4.342477133136975809e+00 8.733181414034476120e+00 1.101622469806979865e-01 1.061310967196978788e-01 3.660259854557851855e-01
5.650000000000000000e+03 4.346958080295175719e+00 8.729569202894687407e+00 1.104684018276244489e-01 1.064173781117514483e-01 3.662621787945565810e-01
5.655000000000000000e+03 4.351439881783131902e+00 8.725965932405072678e+00 1.107751490177793091e-01 1.067041702631095351e-01 3.664983032708901134e-01
5.660000000000000000e+03 4.355922534432819404e+00 8.722371570157138265e+00 1.110824892061399172e-01 1.069914735603112593e-01 3.667343592372065975e-01
5.665000000000000000e+03 4.360406035080012010e+00 8.718786083887575700e+00 1.113904230478858781e-01 1.072792883894373717e-01 3.669703470444666271e-01
5.670000000000000000e+03 4.364890380564236949e+00 8.715209441477473007e+00 1.116989511983984551e-01 1.075676151361083660e-01 3.672062670421751829e-01
5.675000000000000000e+03 4.369375567728780219e+00 8.711641610951547321e+00 1.120080743132589179e-01 1.078564541854819953e-01 3.674421195783847405e-01
5.680000000000000000e+03 4.373861593420721228e+00 8.708082560477309997e+00 1.123177930482530534e-01 1.081458059222565327e-01 3.676779049996993232e-01
5.685000000000000000e+03 4.378348454490859076e+00 8.704532258364354291e+00 1.126281080593652534e-01 1.084356707306643186e-01 3.679136236512785540e-01
5.690000000000000000e+03 4.382836147793772952e+00 8.700990673063534686e+00 1.129390200027842878e-01 1.087260489944757574e-01 3.681492758768412088e-01
5.695000000000000000e+03 4.387324670187761733e+00 8.697457773166226147e+00 1.132505295348987390e-01 1.090169410969944741e-01 3.683848620186690459e-01
5.700000000000000000e+03 4.391814018534858199e+00 8.693933527403560291e+00 1.135626373122978483e-01 1.093083474210568007e-01 3.686203824176106925e-01
5.705000000000000000e+03 4.396304189700853016e+00 8.690417904645647340e+00 1.138753439917744026e-01 1.096002683490335666e-01 3.688558374130853079e-01
5.710000000000000000e+03 4.400795180555226338e+00 8.686910873900856700e+00 1.141886502303207929e-01 1.098927042628253942e-01 3.690912273430865809e-01
5.715000000000000000e+03 4.405286987971187784e+00 8.683412404315051347e+00 1.145025566851307214e-01 1.101856555438633228e-01 3.693265525441863373e-01
5.720000000000000000e+03 4.409779608825663999e+00 8.679922465170836432e+00 1.148170640135996040e-01 1.104791225731078380e-01 3.695618133515382597e-01
5.725000000000000000e+03 4.414273039999286219e+00 8.676441025886838077e+00 1.151321728733240707e-01 1.107731057310478440e-01 3.697970100988819953e-01
5.730000000000000000e+03 4.418767278376373397e+00 8.672968056016973293e+00 1.154478839221007441e-01 1.110676053976982769e-01 3.700321431185463195e-01
5.735000000000000000e+03 4.423262320844929540e+00 8.669503525249714571e+00 1.157641978179272252e-01 1.113626219525999800e-01 3.702672127414536329e-01
5.740000000000000000e+03 4.427758164296677457e+00 8.666047403407349137e+00 1.160811152190035778e-01 1.116581557748199810e-01 3.705022192971232919e-01
5.745000000000000000e+03 4.432254805626974381e+00 8.662599660445293281e+00 1.163986367837280406e-01 1.119542072429468293e-01 3.707371631136752166e-01
5.750000000000000000e+03 4.436752241734898128e+00 8.659160266451344512e+00 1.167167631707020647e-01 1.122507767350939406e-01 3.709720445178341652e-01
5.755000000000000000e+03 4.441250469523165378e+00 8.655729191645002985e+00 1.170354950387268167e-01 1.125478646288952805e-01 3.712068638349328986e-01
5.760000000000000000e+03 4.445749485898152997e+00 8.652306406376752079e+00 1.173548330468029144e-01 1.128454713015044075e-01 3.714416213889163987e-01
5.765000000000000000e+03 4.450249287769902473e+00 8.648891881127344305e+00 1.176747778541328421e-01 1.131435971295954163e-01 3.716763175023450327e-01
5.770000000000000000e+03 4.454749872052110149e+00 8.645485586507124509e+00 1.179953301201193266e-01 1.134422424893606063e-01 3.719109524963989943e-01
5.775000000000000000e+03 4.459251235662102353e+00 8.642087493255335318e+00 1.183164905043649073e-01 1.137414077565086917e-01 3.721455266908814119e-01
5.780000000000000000e+03 4.463753375520855826e+00 8.638697572239411926e+00 1.186382596666727685e-01 1.140410933062651622e-01 3.723800404042225121e-01
5.785000000000000000e+03 4.468256288552977296e+00 8.635315794454317739e+00 1.189606382670468226e-01 1.143412995133708809e-01 3.726144939534828948e-01
5.790000000000000000e+03 4.472759971686688374e+00 8.631942131021864029e+00 1.192836269656902259e-01 1.146420267520795871e-01 3.728488876543574748e-01
5.795000000000000000e+03 4.477264421853841547e+00 8.628576553190027809e+00 1.196072264230062243e-01 1.149432753961581316e-01 3.730832218211793117e-01
5.800000000000000000e+03 4.481769635989900635e+00 8.625219032332282154e+00 1.199314372995989308e-01 1.152450458188857968e-01 3.733174967669230515e-01
5.805000000000000000e+03 4.486275611033949673e+00 8.621869539946917627e+00 1.202562602562728400e-01 1.155473383930529646e-01 3.735517128032087575e-01
5.810000000000000000e+03 4.490782343928647613e+00 8.618528047656431212e+00 1.205816959540298161e-01 1.158501534909572028e-01 3.737858702403054068e-01
5.815000000000000000e+03 4.495289831620284282e+00 8.615194527206785580e+00 1.209077450540743531e-01 1.161534914844073174e-01 3.740199693871347764e-01
5.820000000000000000e+03 4.499798071058717319e+00 8.611868950466831762e+00 1.212344082178093835e-01 1.164573527447181900e-01 3.742540105512751070e-01
5.825000000000000000e+03 4.504307059197397933e+00 8.608551289427619935e+00 1.215616861068375132e-01 1.167617376427110831e-01 3.744879940389646555e-01
5.830000000000000000e+03 4.508816792993353140e+00 8.605241516201763474e+00 1.218895793829609386e-01 1.170666465487125024e-01 3.747219201551050816e-01
5.835000000000000000e+03 4.513327269407195530e+00 8.601939603022790592e+00 1.222180887081819184e-01 1.173720798325534886e-01 3.749557892032658879e-01
5.840000000000000000e+03 4.517838485403107285e+00 8.598645522244508399e+00 1.225472147447025512e-01 1.176780378635686186e-01 3.751896014856871964e-01
5.845000000000000000e+03 4.522350437948822410e+00 8.595359246340384729e+00 1.228769581549236101e-01 1.179845210105936737e-01 3.754233573032839666e-01
5.850000000000000000e+03 4.526863124015627626e+00 8.592080747902906879e+00 1.232073196014444733e-01 1.182915296419647794e-01 3.756570569556493266e-01
5.855000000000000000e+03 4.531376540578379242e+00 8.588809999642947446e+00 1.235382997470651778e-01 1.185990641255188632e-01 3.758907007410581258e-01
5.860000000000000000e+03 4.535890684615480950e+00 8.585546974389146158e+00 1.238698992547849487e-01 1.189071248285919757e-01 3.761242889564710423e-01
5.865000000000000000e+03 4.540405553108855408e+00 8.582291645087314791e+00 1.242021187878008387e-01 1.192157121180162649e-01 3.763578218975377476e-01
5.870000000000000000e+03 4.544921143043988643e+00 8.579043984799783473e+00 1.245349590095109205e-01 1.195248263601223493e-01 3.765912998586004590e-01
5.875000000000000000e+03 4.549437451409884758e+00 8.575803966704821590e+00 1.248684205835110667e-01 1.198344679207353214e-01 3.768247231326979363e-01
5.880000000000000000e+03 4.553954475199062379e+00 8.572571564096024943e+00 1.252025041735954913e-01 1.201446371651737899e-01 3.770580920115687573e-01
5.885000000000000000e+03 4.558472211407586627e+00 8.569346750381695799e+00 1.255372104437595671e-01 1.204553344582520724e-01 3.772914067856550369e-01
5.890000000000000000e+03 4.562990657035009612e+00 8.566129499084265575e+00 1.258725400581949538e-01 1.207665601642744085e-01 3.775246677441058685e-01
5.895000000000000000e+03 4.567509809084403294e+00 8.562919783839694432e+00 1.262084936812932767e-01 1.210783146470369442e-01 3.777578751747810992e-01
5.900000000000000000e+03 4.572029664562352380e+00 8.559717578396865534e+00 1.265450719776455568e-01 1.213905982698268854e-01 3.779910293642548269e-01
5.905000000000000000e+03 4.576550220478924125e+00 8.556522856617013062e+00 1.268822756120394635e-01 1.217034113954184732e-01 3.782241305978188417e-01
5.910000000000000000e+03 4.581071473847694975e+00 8.553335592473125359e+00 1.272201052494637274e-01 1.220167543860760651e-01 3.784571791594863455e-01
5.915000000000000000e+03 4.585593421685717708e+00 8.550155760049378273e+00 1.275585615551037832e-01 1.223306276035493190e-01 3.786901753319954489e-01
5.920000000000000000e+03 4.590116061013518767e+00 8.546983333540550731e+00 1.278976451943432957e-01 1.226450314090733740e-01 3.789231193968125022e-01
5.925000000000000000e+03 4.594639388855140893e+00 8.543818287251433219e+00 1.282373568327667968e-01 1.229599661633702934e-01 3.791560116341361475e-01
5.930000000000000000e+03 4.599163402238044540e+00 8.540660595596305527e+00 1.285776971361530241e-01 1.232754322266419872e-01 3.793888523229003162e-01
5.935000000000000000e+03 4.603688098193209122e+00 8.537510233098300816e+00 1.289186667704833034e-01 1.235914299585768455e-01 3.796216417407779486e-01
5.940000000000000000e+03 4.608213473755034428e+00 8.534367174388917121e+00 1.292602664019338599e-01 1.239079597183415093e-01 3.798543801641846018e-01
5.945000000000000000e+03 4.612739525961411680e+00 8.531231394207384966e+00 1.296024966968814252e-01 1.242250218645853943e-01 3.800870678682819470e-01
5.950000000000000000e+03 4.617266251853649806e+00 8.528102867400185971e+00 1.299453583218977692e-01 1.245426167554341823e-01 3.803197051269809892e-01
5.955000000000000000e+03 4.621793648476540284e+00 8.524981568920422248e+00 1.302888519437570558e-01 1.248607447484958166e-01 3.805522922129461194e-01
5.960000000000000000e+03 4.626321712878283421e+00 8.521867473827335004e+00 1.306329782294265440e-01 1.251794062008509678e-01 3.807848293975978904e-01
5.965000000000000000e+03 4.630850442110536314e+00 8.518760557285711243e+00 1.309777378460745823e-01 1.254986014690591123e-01 3.810173169511171798e-01
5.970000000000000000e+03 4.635379833228389757e+00 8.515660794565363290e+00 1.313231314610667222e-01 1.258183309091542024e-01 3.812497551424481879e-01
5.975000000000000000e+03 4.639909883290342485e+00 8.512568161040581671e+00 1.316691597419654414e-01 1.261385948766432508e-01 3.814821442393022122e-01
5.980000000000000000e+03 4.644440589358332261e+00 8.509482632189609319e+00 1.320158233565311701e-01 1.264593937265063583e-01 3.817144845081608673e-01
