#[MATERIAL DEFINITION FOR MC-GPU: interaction mean free path and sampling data from PENELOPE 2006]
#[MATERIAL NAME]
# Teflon(CF2)
#[NOMINAL DENSITY (g/cm^3)]
# 2.16
#[NUMBER OF DATA VALUES]
# 24001
#[MEAN FREE PATHS (cm)]
#[Energy (eV)     | Rayleigh        | Compton         | Photoelectric   | TOTAL (+pair prod) (cm) | Rayleigh: max cumul prob F^2]
5.000000000000000000e+03 7.163113819795290382e-01 5.744834409868698089e+00 8.678005433475841079e-03 8.561353346457741681e-03 3.529322423084174098e-01
5.005000000000000000e+03 7.170928652205699194e-01 5.739886690653826840e+00 8.704027164541916148e-03 8.586780288764805924e-03 3.532153353048948508e-01
5.010000000000000000e+03 7.178749140582239008e-01 5.734952894381892818e+00 8.730102237611487778e-03 8.612258146108555182e-03 3.534980843135127060e-01
5.015000000000000000e+03 7.186575277616632507e-01 5.730032967458596360e+00 8.756230714835701312e-03 8.637786972993565654e-03 3.537804899013831661e-01
5.020000000000000000e+03 7.194407056016719482e-01 5.725126856558874877e+00 8.782412658393905225e-03 8.663366823934421160e-03 3.540625526360439146e-01
5.025000000000000000e+03 7.202244468506328046e-01 5.720234508625265946e+00 8.808648130493547043e-03 8.688997753455602116e-03 3.543442730854473033e-01
5.030000000000000000e+03 7.210087507825259090e-01 5.715355870866209109e+00 8.834937193370378042e-03 8.714679816091627784e-03 3.546256518179488060e-01
5.035000000000000000e+03 7.217936166729111980e-01 5.710490890754459592e+00 8.861279909288316201e-03 8.740413066386907084e-03 3.549066894022966934e-01
5.040000000000000000e+03 7.225790437989257908e-01 5.705639516025424740e+00 8.887676340539604064e-03 8.766197558895840944e-03 3.551873864076209308e-01
5.045000000000000000e+03 7.233650314392693348e-01 5.700801694675596387e+00 8.914126549444574554e-03 8.792033348182582905e-03 3.554677434034221872e-01
5.050000000000000000e+03 7.241515788741980097e-01 5.695977374960915718e+00 8.940630598351881689e-03 8.817920488821221273e-03 3.557477609595612322e-01
5.055000000000000000e+03 7.249386853855167567e-01 5.691166505395181652e+00 8.967188549638510989e-03 8.843859035395751356e-03 3.560274396462482782e-01
5.060000000000000000e+03 7.257263502565650670e-01 5.686369034748515183e+00 8.993800465709573047e-03 8.869849042499851691e-03 3.563067800340324331e-01
5.065000000000000000e+03 7.265145727722153168e-01 5.681584912045736679e+00 9.020466408998619248e-03 8.895890564737144249e-03 3.565857826937909869e-01
5.070000000000000000e+03 7.273033522188558919e-01 5.676814086564871076e+00 9.047186441967334722e-03 8.921983656720882186e-03 3.568644481967190307e-01
5.075000000000000000e+03 7.280926878843899663e-01 5.672056507835550931e+00 9.073960627105814164e-03 8.948128373074170153e-03 3.571427771143191321e-01
5.080000000000000000e+03 7.288825790582225128e-01 5.667312125637517184e+00 9.100789026932428263e-03 8.974324768429801230e-03 3.574207700183907321e-01
5.085000000000000000e+03 7.296730250312514210e-01 5.662580889999087930e+00 9.127671703993893090e-03 9.000572897430305502e-03 3.576984274810203202e-01
5.090000000000000000e+03 7.304640250958606140e-01 5.657862751195654738e+00 9.154608720865186830e-03 9.026872814727814748e-03 3.579757500745707754e-01
5.095000000000000000e+03 7.312555785459097235e-01 5.653157659748180741e+00 9.181600140149671213e-03 9.053224574984164788e-03 3.582527383716714309e-01
5.100000000000000000e+03 7.320476846767295376e-01 5.648465566421693396e+00 9.208646024479101924e-03 9.079628232870871202e-03 3.585293929452081918e-01
5.105000000000000000e+03 7.328403427851077900e-01 5.643786422223840304e+00 9.235746436513521049e-03 9.106083843068971465e-03 3.588057143683131556e-01
5.110000000000000000e+03 7.336335521692842754e-01 5.639120178403399741e+00 9.262901438941350749e-03 9.132591460269116890e-03 3.590817032143548970e-01
5.115000000000000000e+03 7.344273121289460748e-01 5.634466786448813380e+00 9.290111094479526835e-03 9.159151139171629874e-03 3.593573600569285320e-01
5.120000000000000000e+03 7.352216219652102369e-01 5.629826198086774092e+00 9.317375465873188253e-03 9.185762934486214198e-03 3.596326854698460584e-01
5.125000000000000000e+03 7.360164809806226671e-01 5.625198365280765778e+00 9.344694615895992804e-03 9.212426900932170135e-03 3.599076800271263643e-01
5.130000000000000000e+03 7.368118884791461376e-01 5.620583240229648503e+00 9.372068607349905503e-03 9.239143093238222706e-03 3.601823443029856797e-01
5.135000000000000000e+03 7.376078437661591769e-01 5.615980775366212541e+00 9.399497503065505633e-03 9.265911566142724654e-03 3.604566788718280845e-01
5.140000000000000000e+03 7.384043461484387505e-01 5.611390923355818572e+00 9.426981365901634588e-03 9.292732374393321629e-03 3.607306843082356274e-01
5.145000000000000000e+03 7.392013949341545986e-01 5.606813637094991698e+00 9.454520258745536393e-03 9.319605572747044139e-03 3.610043611869590552e-01
5.150000000000000000e+03 7.399989894328702356e-01 5.602248869709977264e+00 9.482114244513154336e-03 9.346531215970550407e-03 3.612777100829085986e-01
5.155000000000000000e+03 7.407971289555211891e-01 5.597696574555465432e+00 9.509763386148607084e-03 9.373509358839597280e-03 3.615507315711442571e-01
5.160000000000000000e+03 7.415958128144175543e-01 5.593156705213138125e+00 9.537467746624648385e-03 9.400540056139449624e-03 3.618234262268665846e-01
5.165000000000000000e+03 7.423950403232321138e-01 5.588629215490351854e+00 9.565227388942505737e-03 9.427623362664687770e-03 3.620957946254075299e-01
5.170000000000000000e+03 7.431948107969943429e-01 5.584114059418787690e+00 9.593042376131840493e-03 9.454759333219143330e-03 3.623678373422213328e-01
5.175000000000000000e+03 7.439951235520805284e-01 5.579611191253105673e+00 9.620912771250877960e-03 9.481948022615970320e-03 3.626395549528751427e-01
5.180000000000000000e+03 7.447959779062077734e-01 5.575120565469629419e+00 9.648838637386289441e-03 9.509189485677527198e-03 3.629109480330404147e-01
5.185000000000000000e+03 7.455973731784247827e-01 5.570642136765015628e+00 9.676820037653265094e-03 9.536483777235382070e-03 3.631820171584834722e-01
5.190000000000000000e+03 7.463993086891111961e-01 5.566175860054927149e+00 9.704857035195683934e-03 9.563830952130468813e-03 3.634527629050567921e-01
5.195000000000000000e+03 7.472017837599590484e-01 5.561721690472784196e+00 9.732949693185754744e-03 9.591231065212701967e-03 3.637231858486901781e-01
5.200000000000000000e+03 7.480047977139727688e-01 5.557279583368424092e+00 9.761098074824349144e-03 9.618684171341242151e-03 3.639932865653820460e-01
5.205000000000000000e+03 7.488083498754604106e-01 5.552849494306846267e+00 9.789302243340859341e-03 9.646190325384353809e-03 3.642630656311902082e-01
5.210000000000000000e+03 7.496124395700277665e-01 5.548431379066915525e+00 9.817562261993323033e-03 9.673749582219474605e-03 3.645325236222239362e-01
5.215000000000000000e+03 7.504170661245671559e-01 5.544025193640126581e+00 9.845878194068255138e-03 9.701361996733026336e-03 3.648016611146345789e-01
5.220000000000000000e+03 7.512222288672543158e-01 5.539630894229327751e+00 9.874250102880826468e-03 9.729027623820548504e-03 3.650704786846076244e-01
5.225000000000000000e+03 7.520279271275387423e-01 5.535248437247483722e+00 9.902678051774771797e-03 9.756746518386576889e-03 3.653389769083538186e-01
5.230000000000000000e+03 7.528341602361388052e-01 5.530877779316425880e+00 9.931162104122495671e-03 9.784518735344711199e-03 3.656071563621009490e-01
5.235000000000000000e+03 7.536409275250316453e-01 5.526518877265639063e+00 9.959702323324938836e-03 9.812344329617460684e-03 3.658750176220852968e-01
5.240000000000000000e+03 7.544482283274489554e-01 5.522171688131034095e+00 9.988298772811701406e-03 9.840223356136306582e-03 3.661425612645433647e-01
5.245000000000000000e+03 7.552560619778723172e-01 5.517836169153716774e+00 1.001695151604115562e-02 9.868155869841802735e-03 3.664097878657036622e-01
5.250000000000000000e+03 7.560644278120157713e-01 5.513512277778828796e+00 1.004566061650005900e-02 9.896141925683155788e-03 3.666766980017785449e-01
5.255000000000000000e+03 7.568733251668351425e-01 5.509199971654292760e+00 1.007442613770409556e-02 9.924181578618709171e-03 3.669432922489558324e-01
5.260000000000000000e+03 7.576827533805045034e-01 5.504899208629686846e+00 1.010324814319741096e-02 9.952274883615462586e-03 3.672095711833910370e-01
5.265000000000000000e+03 7.584927117924232798e-01 5.500609946755020019e+00 1.013212669655293163e-02 9.980421895649353031e-03 3.674755353811992586e-01
5.270000000000000000e+03 7.593031997432005964e-01 5.496332144279575616e+00 1.016106186137225031e-02 1.000862266970509867e-02 3.677411854184469697e-01
5.275000000000000000e+03 7.601142165746540558e-01 5.492065759650744283e+00 1.019005370128569544e-02 1.003687726077624222e-02 3.680065218711441877e-01
5.280000000000000000e+03 7.609257616297986360e-01 5.487810751512885332e+00 1.021910227995224962e-02 1.006518572386503121e-02 3.682715453152369811e-01
5.285000000000000000e+03 7.617378342528452473e-01 5.483567078706156117e+00 1.024820766105966410e-02 1.009354811398249091e-02 3.685362563265992542e-01
5.290000000000000000e+03 7.625504337891861883e-01 5.479334700265402702e+00 1.027736990832431481e-02 1.012196448614825772e-02 3.688006554810250859e-01
5.295000000000000000e+03 7.633635595854005862e-01 5.475113575418986578e+00 1.030658908549147122e-02 1.015043489539080128e-02 3.690647433542211808e-01
5.300000000000000000e+03 7.641772109892351894e-01 5.470903663587710852e+00 1.033586525633497025e-02 1.017895939674707054e-02 3.693285205217990419e-01
5.305000000000000000e+03 7.649913873496104744e-01 5.466704924383646969e+00 1.036519848465761000e-02 1.020753804526285634e-02 3.695919875592675874e-01
5.310000000000000000e+03 7.658060880165992179e-01 5.462517317609104417e+00 1.039458883429069357e-02 1.023617089599227967e-02 3.698551450420254905e-01
5.315000000000000000e+03 7.666213123414394870e-01 5.458340803255430806e+00 1.042403636909463097e-02 1.026485800399839013e-02 3.701179935453537961e-01
5.320000000000000000e+03 7.674370596765074382e-01 5.454175341502025098e+00 1.045354115295823658e-02 1.029359942435239920e-02 3.703805336444084273e-01
5.325000000000000000e+03 7.682533293753306403e-01 5.450020892715145671e+00 1.048310324979947507e-02 1.032239521213440189e-02 3.706427659142130238e-01
5.330000000000000000e+03 7.690701207925656480e-01 5.445877417446935986e+00 1.051272272356484037e-02 1.035124542243273660e-02 3.709046909296514483e-01
5.335000000000000000e+03 7.698874332840025536e-01 5.441744876434273515e+00 1.054239963822981886e-02 1.038015011034437544e-02 3.711663092654604035e-01
5.340000000000000000e+03 7.707052662065572157e-01 5.437623230597737667e+00 1.057213405779868810e-02 1.040910933097472478e-02 3.714276214962226041e-01
5.345000000000000000e+03 7.715236189182571591e-01 5.433512441040571517e+00 1.060192604630439198e-02 1.043812313943744303e-02 3.716886281963593941e-01
5.350000000000000000e+03 7.723424907782500126e-01 5.429412469047579570e+00 1.063177566780902986e-02 1.046719159085490909e-02 3.719493299401238073e-01
5.355000000000000000e+03 7.731618811467804164e-01 5.425323276084169422e+00 1.066168298640316620e-02 1.049631474035748503e-02 3.722097273015932961e-01
5.360000000000000000e+03 7.739817893852027897e-01 5.421244823795208667e+00 1.069164806620663023e-02 1.052549264308427247e-02 3.724698208546631251e-01
5.365000000000000000e+03 7.748022148559567945e-01 5.417177074004107418e+00 1.072167097136777179e-02 1.055472535418236664e-02 3.727296111730389883e-01
5.370000000000000000e+03 7.756231569225776612e-01 5.413119988711700081e+00 1.075175176606409447e-02 1.058401292880741494e-02 3.729890988302305699e-01
5.375000000000000000e+03 7.764446149496775362e-01 5.409073530095317217e+00 1.078189051450178029e-02 1.061335542212312605e-02 3.732482843995445498e-01
5.380000000000000000e+03 7.772665883029492573e-01 5.405037660507711728e+00 1.081208728091599854e-02 1.064275288930154398e-02 3.735071684540774983e-01
5.385000000000000000e+03 7.780890763491541406e-01 5.401012342476096073e+00 1.084234212957083283e-02 1.067220538552292840e-02 3.737657515667097696e-01
5.390000000000000000e+03 7.789120784561222033e-01 5.396997538701119979e+00 1.087265512475936967e-02 1.070171296597581881e-02 3.740240343100985632e-01
5.395000000000000000e+03 7.797355939927403945e-01 5.392993212055923635e+00 1.090302633080340519e-02 1.073127568585670495e-02 3.742820172566709847e-01
5.400000000000000000e+03 7.805596223289530400e-01 5.388999325585110078e+00 1.093345581205393269e-02 1.076089360037046049e-02 3.745397009786181064e-01
5.405000000000000000e+03 7.813841628357480751e-01 5.385015842503824146e+00 1.096394363289061348e-02 1.079056676472981216e-02 3.747970860478880284e-01
5.410000000000000000e+03 7.822092148851605975e-01 5.381042726196731074e+00 1.099448985772228868e-02 1.082029523415577524e-02 3.750541730361793280e-01
5.415000000000000000e+03 7.830347778502627643e-01 5.377079940217088350e+00 1.102509455098667039e-02 1.085007906387733950e-02 3.753109625149351758e-01
5.420000000000000000e+03 7.838608511051583516e-01 5.373127448285791807e+00 1.105575777715043888e-02 1.087991830913153345e-02 3.755674550553362301e-01
5.425000000000000000e+03 7.846874340249794244e-01 5.369185214290410180e+00 1.108647960070931020e-02 1.090981302516340345e-02 3.758236512282951414e-01
5.430000000000000000e+03 7.855145259858771212e-01 5.365253202284256950e+00 1.111726008618795815e-02 1.093976326722598605e-02 3.760795516044495579e-01
5.435000000000000000e+03 7.863421263650194337e-01 5.361331376485460432e+00 1.114809929814001427e-02 1.096976909058018472e-02 3.763351567541565190e-01
5.440000000000000000e+03 7.871702345405885426e-01 5.357419701276000090e+00 1.117899730114826212e-02 1.099983055049499718e-02 3.765904672474856274e-01
5.445000000000000000e+03 7.879988498917656070e-01 5.353518141200850344e+00 1.120995415982429556e-02 1.102994770224709209e-02 3.768454836542137198e-01
5.450000000000000000e+03 7.888279717987374262e-01 5.349626660966982250e+00 1.124096993880892466e-02 1.106012060112119243e-02 3.771002065438181505e-01
5.455000000000000000e+03 7.896575996426857813e-01 5.345745225442514403e+00 1.127204470277194670e-02 1.109034930240982049e-02 3.773546364854710178e-01
5.460000000000000000e+03 7.904877328057789976e-01 5.341873799655789234e+00 1.130317851641211499e-02 1.112063386141323197e-02 3.776087740480332799e-01
5.465000000000000000e+03 7.913183706711732768e-01 5.338012348794463513e+00 1.133437144445737996e-02 1.115097433343959117e-02 3.778626198000488157e-01
5.470000000000000000e+03 7.921495126230032602e-01 5.334160838204631716e+00 1.136562355166467232e-02 1.118137077380475068e-02 3.781161743097383177e-01
5.475000000000000000e+03 7.929811580463780318e-01 5.330319233389928968e+00 1.139693490282001585e-02 1.121182323783230517e-02 3.783694381449937416e-01
5.480000000000000000e+03 7.938133063273801193e-01 5.326487500010644638e+00 1.142830556273859502e-02 1.124233178085363993e-02 3.786224118733723665e-01
5.485000000000000000e+03 7.946459568530500617e-01 5.322665603882882124e+00 1.145973559626455897e-02 1.127289645820770542e-02 3.788750960620911323e-01
5.490000000000000000e+03 7.954791090113910723e-01 5.318853510977647581e+00 1.149122506827115336e-02 1.130351732524106402e-02 3.791274912780209227e-01
5.495000000000000000e+03 7.963127621913669296e-01 5.315051187419983947e+00 1.152277404366102570e-02 1.133419443730821798e-02 3.793795980876810692e-01
5.500000000000000000e+03 7.971469157828805496e-01 5.311258599488175136e+00 1.155438258736549845e-02 1.136492784977082005e-02 3.796314170572335778e-01
5.505000000000000000e+03 7.979815691767890851e-01 5.307475713612815227e+00 1.158605076434538264e-02 1.139571761799843680e-02 3.798829487524773563e-01
5.510000000000000000e+03 7.988167217648846075e-01 5.303702496376012654e+00 1.161777863959048002e-02 1.142656379736804728e-02 3.801341937388434400e-01
5.515000000000000000e+03 7.996523729398986591e-01 5.299938914510526899e+00 1.164956627811980679e-02 1.145746644326419220e-02 3.803851525813887746e-01
5.520000000000000000e+03 8.004885220954897074e-01 5.296184934898948704e+00 1.168141374498143925e-02 1.148842561107882645e-02 3.806358258447914422e-01
5.525000000000000000e+03 8.013251686262433671e-01 5.292440524572858962e+00 1.171332110525270809e-02 1.151944135621142673e-02 3.808862140933445550e-01
5.530000000000000000e+03 8.021623119276671821e-01 5.288705650712003603e+00 1.174528842404005437e-02 1.155051373406885441e-02 3.811363178909518146e-01
5.535000000000000000e+03 8.029999513961857405e-01 5.284980280643474693e+00 1.177731576647923425e-02 1.158164280006549265e-02 3.813861378011216274e-01
5.540000000000000000e+03 8.038380864291352346e-01 5.281264381840905742e+00 1.180940319773506227e-02 1.161282860962297749e-02 3.816356743869618318e-01
5.545000000000000000e+03 8.046767164247579096e-01 5.277557921923655471e+00 1.184155078300163332e-02 1.164407121817036088e-02 3.818849282111750343e-01
5.550000000000000000e+03 8.055158407821996214e-01 5.273860868656010226e+00 1.187375858750216312e-02 1.167537068114393034e-02 3.821338998360530037e-01
5.555000000000000000e+03 8.063554589015069496e-01 5.270173189946360637e+00 1.190602667648934902e-02 1.170672705398752636e-02 3.823825898234716747e-01
5.560000000000000000e+03 8.071955701836144303e-01 5.266494853846467983e+00 1.193835511524470906e-02 1.173814039215183465e-02 3.826309987348863184e-01
5.565000000000000000e+03 8.080361740303521056e-01 5.262825828550599994e+00 1.197074396907937301e-02 1.176961075109517717e-02 3.828791271313263245e-01
5.570000000000000000e+03 8.088772698444306464e-01 5.259166082394810537e+00 1.200319330333356888e-02 1.180113818628289631e-02 3.831269755733902049e-01
5.575000000000000000e+03 8.097188570294436838e-01 5.255515583856131379e+00 1.203570318337677560e-02 1.183272275318753355e-02 3.833745446212407093e-01
5.580000000000000000e+03 8.105609349898567073e-01 5.251874301551811897e+00 1.206827367460769698e-02 1.186436450728874971e-02 3.836218348346001061e-01
5.585000000000000000e+03 8.114035031310133927e-01 5.248242204238535713e+00 1.210090484245448898e-02 1.189606350407347406e-02 3.838688467727451870e-01
5.590000000000000000e+03 8.122465608591193931e-01 5.244619260811676398e+00 1.213359675237444743e-02 1.192781979903562335e-02 3.841155809945023258e-01
5.595000000000000000e+03 8.130901075812437817e-01 5.241005440304538965e+00 1.216634946985414509e-02 1.195963344767613651e-02 3.843620380582432050e-01
5.600000000000000000e+03 8.139341427053170541e-01 5.237400711887589821e+00 1.219916306040961552e-02 1.199150450550316542e-02 3.846082185218795413e-01
5.605000000000000000e+03 8.147786656401208027e-01 5.233805044867733791e+00 1.223203758958599577e-02 1.202343302803167251e-02 3.848541229428587562e-01
5.610000000000000000e+03 8.156236757952892713e-01 5.230218408687543175e+00 1.226497312295794437e-02 1.205541907078378112e-02 3.850997518781594797e-01
5.615000000000000000e+03 8.164691725813026935e-01 5.226640772924540990e+00 1.229796972612934650e-02 1.208746268928848934e-02 3.853451058842863874e-01
5.620000000000000000e+03 8.173151554094825189e-01 5.223072107290460231e+00 1.233102746473348221e-02 1.211956393908175666e-02 3.855901855172663151e-01
5.625000000000000000e+03 8.181616236919838636e-01 5.219512381630530662e+00 1.236414640443281830e-02 1.215172287570629589e-02 3.858349913326432068e-01
5.630000000000000000e+03 8.190085768418043921e-01 5.215961565922707877e+00 1.239732661091948358e-02 1.218393955471199115e-02 3.860795238854741740e-01
5.635000000000000000e+03 8.198560142727641109e-01 5.212419630277015159e+00 1.243056814991470860e-02 1.221621403165529252e-02 3.863237837303244993e-01
5.640000000000000000e+03 8.207039353995093656e-01 5.208886544934785867e+00 1.246387108716923153e-02 1.224854636209960629e-02 3.865677714212638616e-01
5.645000000000000000e+03 8.215523396375106202e-01 5.205362280267972430e+00 1.249723548846314036e-02 1.228093660161508685e-02 3.868114875118614515e-01
5.650000000000000000e+03 8.224012264030531316e-01 5.201846806778430476e+00 1.253066141960592836e-02 1.231338480577864186e-02 3.870549325551820297e-01
5.655000000000000000e+03 8.232505951132362831e-01 5.198340095097234936e+00 1.256414894643644205e-02 1.234589103017387675e-02 3.872981071037813194e-01
5.660000000000000000e+03 8.241004451859679225e-01 5.194842115983959729e+00 1.259769813482297489e-02 1.237845533039111899e-02 3.875410117097023432e-01
5.665000000000000000e+03 8.249507760399650280e-01 5.191352840325995643e+00 1.263130905066332972e-02 1.241107776202745455e-02 3.877836469244705375e-01
5.670000000000000000e+03 8.258015870947434944e-01 5.187872239137863772e+00 1.266498175988467825e-02 1.244375838068654573e-02 3.880260132990902555e-01
5.675000000000000000e+03 8.266528777706139142e-01 5.184400283560552936e+00 1.269871632844347259e-02 1.247649724197851147e-02 3.882681113840402154e-01
5.680000000000000000e+03 8.275046474886875725e-01 5.180936944860787818e+00 1.273251282232594483e-02 1.250929440152039052e-02 3.885099417292694479e-01
5.685000000000000000e+03 8.283568956708593500e-01 5.177482194430416129e+00 1.276637130754742014e-02 1.254214991493540939e-02 3.887515048841935772e-01
5.690000000000000000e+03 8.292096217398157165e-01 5.174036003785682958e+00 1.280029185015302967e-02 1.257506383785364154e-02 3.889928013976904908e-01
5.695000000000000000e+03 8.300628251190218521e-01 5.170598344566609050e+00 1.283427451621715031e-02 1.260803622591145576e-02 3.892338318180967316e-01
5.700000000000000000e+03 8.309165052327207590e-01 5.167169188536309576e+00 1.286831937184364054e-02 1.264106713475166531e-02 3.894745966932031678e-01
5.705000000000000000e+03 8.317706615059360375e-01 5.163748507580318226e+00 1.290242648316607468e-02 1.267415662002374828e-02 3.897150965702513847e-01
5.710000000000000000e+03 8.326252933644570087e-01 5.160336273705969035e+00 1.293659591634728143e-02 1.270730473738334969e-02 3.899553319959299102e-01
5.715000000000000000e+03 8.334804002348414897e-01 5.156932459041731143e+00 1.297082773757968384e-02 1.274051154249256600e-02 3.901953035163701622e-01
5.720000000000000000e+03 8.343359815444134631e-01 5.153537035836550650e+00 1.300512201308529417e-02 1.277377709101992255e-02 3.904350116771426182e-01
5.725000000000000000e+03 8.351920367212569696e-01 5.150149976459223566e+00 1.303947880911563231e-02 1.280710143864024347e-02 3.906744570232537073e-01
5.730000000000000000e+03 8.360485651942107799e-01 5.146771253397756318e+00 1.307389819195166857e-02 1.284048464103454759e-02 3.909136400991412019e-01
5.735000000000000000e+03 8.369055663928662847e-01 5.143400839258749357e+00 1.310838022790393638e-02 1.287392675389014210e-02 3.911525614486712210e-01
5.740000000000000000e+03 8.377630397475679391e-01 5.140038706766715926e+00 1.314292498331266421e-02 1.290742783290070063e-02 3.913912216151345103e-01
5.745000000000000000e+03 8.386209846894012720e-01 5.136684828763529609e+00 1.317753252454741814e-02 1.294098793376587293e-02 3.916296211412424455e-01
5.750000000000000000e+03 8.394794006501997696e-01 5.133339178207728004e+00 1.321220291800760151e-02 1.297460711219174112e-02 3.918677605691242016e-01
5.755000000000000000e+03 8.403382870625331069e-01 5.130001728173954056e+00 1.324693623012200561e-02 1.300828542389036342e-02 3.921056404403223672e-01
5.760000000000000000e+03 8.411976433597034841e-01 5.126672451852318346e+00 1.328173252734901784e-02 1.304202292457987480e-02 3.923432612957903354e-01
5.765000000000000000e+03 8.420574689757504006e-01 5.123351322547785358e+00 1.331659187617669458e-02 1.307581966998459105e-02 3.925806236758879186e-01
5.770000000000000000e+03 8.429177633454393304e-01 5.120038313679574848e+00 1.335151434312273518e-02 1.310967571583491684e-02 3.928177281203789617e-01
5.775000000000000000e+03 8.437785259042605013e-01 5.116733398780559661e+00 1.338649999473432578e-02 1.314359111786713406e-02 3.930545751684271782e-01
5.780000000000000000e+03 8.446397560884273403e-01 5.113436551496660876e+00 1.342154889758839266e-02 1.317756593182365168e-02 3.932911653585930978e-01
5.785000000000000000e+03 8.455014533348714778e-01 5.110147745586255397e+00 1.345666111829148422e-02 1.321160021345281141e-02 3.935274992288307905e-01
5.790000000000000000e+03 8.463636170812385284e-01 5.106866954919601298e+00 1.349183672347972415e-02 1.324569401850884433e-02 3.937635773164844810e-01
5.795000000000000000e+03 8.472262467658864260e-01 5.103594153478224094e+00 1.352707577981889474e-02 1.327984740275187439e-02 3.939994001582854399e-01
5.800000000000000000e+03 8.480893418278815377e-01 5.100329315354347415e+00 1.356237835400450967e-02 1.331406042194797218e-02 3.942349682903487085e-01
5.805000000000000000e+03 8.489529017069986638e-01 5.097072414750304148e+00 1.359774451276178631e-02 1.334833313186909592e-02 3.944702822481698234e-01
5.810000000000000000e+03 8.498169258437072715e-01 5.093823425977983099e+00 1.363317432284541150e-02 1.338266558829280008e-02 3.947053425666216531e-01
5.815000000000000000e+03 8.506814136791830405e-01 5.090582323458225034e+00 1.366866785103999261e-02 1.341705784700266031e-02 3.949401497799517324e-01
5.820000000000000000e+03 8.515463646552929866e-01 5.087349081720271116e+00 1.370422516415970536e-02 1.345150996378787628e-02 3.951747044217786553e-01
5.825000000000000000e+03 8.524117782145971267e-01 5.084123675401198028e+00 1.373984632904844648e-02 1.348602199444338956e-02 3.954090070250892430e-01
5.830000000000000000e+03 8.532776538003445932e-01 5.080906079245349538e+00 1.377553141257979730e-02 1.352059399476980735e-02 3.956430581222356024e-01
5.835000000000000000e+03 8.541439908564710803e-01 5.077696268103776056e+00 1.381128048165714342e-02 1.355522602057347009e-02 3.958768582449320173e-01
5.840000000000000000e+03 8.550107888275967349e-01 5.074494216933676860e+00 1.384709360321362791e-02 1.358991812766639599e-02 3.961104079242520060e-01
5.845000000000000000e+03 8.558780471590191619e-01 5.071299900797865412e+00 1.388297084421202116e-02 1.362467037186607284e-02 3.963437076906256018e-01
5.850000000000000000e+03 8.567457652967102044e-01 5.068113294864209806e+00 1.391891227164480764e-02 1.365948280899554647e-02 3.965767580738362441e-01
5.855000000000000000e+03 8.576139426873207183e-01 5.064934374405078543e+00 1.395491795253433163e-02 1.369435549488349710e-02 3.968095596030179473e-01
5.860000000000000000e+03 8.584825787781692474e-01 5.061763114796805851e+00 1.399098795393275731e-02 1.372928848536415433e-02 3.970421128066527472e-01
5.865000000000000000e+03 8.593516730172408025e-01 5.058599491519165881e+00 1.402712234292177729e-02 1.376428183627701959e-02 3.972744182125675372e-01
5.870000000000000000e+03 8.602212248531883043e-01 5.055443480154807823e+00 1.406332118661317646e-02 1.379933560346729982e-02 3.975064763479316254e-01
5.875000000000000000e+03 8.610912337353231472e-01 5.052295056388751426e+00 1.409958455214833407e-02 1.383444984278547028e-02 3.977382877392537375e-01
5.880000000000000000e+03 8.619616991136144213e-01 5.049154196007859419e+00 1.413591250669839379e-02 1.386962461008733882e-02 3.979698529123796291e-01
5.885000000000000000e+03 8.628326204386914666e-01 5.046020874900277953e+00 1.417230511746452558e-02 1.390485996123427999e-02 3.982011723924890334e-01
5.890000000000000000e+03 8.637039971618312162e-01 5.042895069054955215e+00 1.420876245167749206e-02 1.394015595209278924e-02 3.984322467040933846e-01
5.895000000000000000e+03 8.645758287349624149e-01 5.039776754561101413e+00 1.424528457659796077e-02 1.397551263853470845e-02 3.986630763710330982e-01
5.900000000000000000e+03 8.654481146106608458e-01 5.036665907607668302e+00 1.428187155951647982e-02 1.401093007643721550e-02 3.988936619164750175e-01
5.905000000000000000e+03 8.663208542421453329e-01 5.033562504482854472e+00 1.431852346775331318e-02 1.404640832168259183e-02 3.991240038629096376e-01
5.910000000000000000e+03 8.671940470832777415e-01 5.030466521573575100e+00 1.435524036865877887e-02 1.408194743015849480e-02 3.993541027321488857e-01
5.915000000000000000e+03 8.680676925885555395e-01 5.027377935364971684e+00 1.439202232961286562e-02 1.411754745775759684e-02 3.995839590453235668e-01
5.920000000000000000e+03 8.689417902131104654e-01 5.024296722439911989e+00 1.442886941802545148e-02 1.415320846037770863e-02 3.998135733228808664e-01
5.925000000000000000e+03 8.698163394127144121e-01 5.021222859478450040e+00 1.446578170133649976e-02 1.418893049392197167e-02 4.000429460845819074e-01
5.930000000000000000e+03 8.706913396437564456e-01 5.018156323257398022e+00 1.450275924701546239e-02 1.422471361429819038e-02 4.002720778494993081e-01
5.935000000000000000e+03 8.715667903632660085e-01 5.015097090649760503e+00 1.453980212256212115e-02 1.426055787741967000e-02 4.005009691360149060e-01
5.940000000000000000e+03 8.724426910288868298e-01 5.012045138624296570e+00 1.457691039550582969e-02 1.429646333920438564e-02 4.007296204618174817e-01
5.945000000000000000e+03 8.733190410988906915e-01 5.009000444244989581e+00 1.461408413340610501e-02 1.433243005557555301e-02 4.009580323439003169e-01
5.950000000000000000e+03 8.741958400321611089e-01 5.005962984670609295e+00 1.465132340385206025e-02 1.436845808246100566e-02 4.011862052985588067e-01
5.955000000000000000e+03 8.750730872882064304e-01 5.002932737154170972e+00 1.468862827446314710e-02 1.440454747579393222e-02 4.014141398413885731e-01
5.960000000000000000e+03 8.759507823271404092e-01 4.999909679042512600e+00 1.472599881288839258e-02 1.444069829151201946e-02 4.016418364872828550e-01
5.965000000000000000e+03 8.768289246096917511e-01 4.996893787775781526e+00 1.476343508680694541e-02 1.447691058555800742e-02 4.018692957504303997e-01
5.970000000000000000e+03 8.777075135971980080e-01 4.993885040886966387e+00 1.480093716392793211e-02 1.451318441387947251e-02 4.020965181443134639e-01
5.975000000000000000e+03 8.785865487515979178e-01 4.990883416001440587e+00 1.483850511199033724e-02 1.454951983242869056e-02 4.023235041817056490e-01
5.980000000000000000e+03 8.794660295354371771e-01 4.987888890836481792e+00 1.487613899876315780e-02 1.458591689716273385e-02 4.025502543746694029e-01
