#
#  125 kVp Tungsten  0.89 mm Ti filtration
#  This is the Varian CBCT spectrum according to ASC calibration folder of real scans
#
#
#  Energy [eV]    Flux
# ----------------------------------------------------
5.0e3 0.0
6.0e3 0.0
7.0e3 0.0
8.0e3 0.0
9.0e3 0.0
10.0e3 0.0
11.0e3 0.0
12.0e3 0.0
13.0e3 10.639
14.0e3 248.05
15.0e3 1660.5
16.0e3 7429.5
17.0e3 24296.0
18.0e3 62165.0
19.0e3 132640.0
20.0e3 245740.0
21.0e3 406790.0
22.0e3 615180.0
23.0e3 863990.0
24.0e3 1144600.0
25.0e3 1443500.0
26.0e3 1753900.0
27.0e3 2061900.0
28.0e3 2357500.0
29.0e3 2643100.0
30.0e3 2898900.0
31.0e3 3124700.0
32.0e3 3332500.0
33.0e3 3512900.0
34.0e3 3664800.0
35.0e3 3792700.0
36.0e3 3891600.0
37.0e3 3965800.0
38.0e3 4024600.0
39.0e3 4063500.0
40.0e3 4082200.0
41.0e3 4090200.0
42.0e3 4087200.0
43.0e3 4069200.0
44.0e3 4040700.0
45.0e3 4006200.0
46.0e3 3966200.0
47.0e3 3915600.0
48.0e3 3859700.0
49.0e3 3803100.0
50.0e3 3740900.0
51.0e3 3673400.0
52.0e3 3605300.0
53.0e3 3536900.0
54.0e3 3468000.0
55.0e3 3398600.0
56.0e3 3324100.0
57.0e3 3249200.0
58.0e3 6994500.0
59.0e3 13600000.0
60.0e3 9714700.0
61.0e3 2966600.0
62.0e3 2895400.0
63.0e3 2824000.0
64.0e3 2752400.0
65.0e3 2685600.0
66.0e3 2618600.0
67.0e3 4795700.0
68.0e3 4733800.0
69.0e3 3012500.0
70.0e3 2798700.0
71.0e3 2008200.0
72.0e3 1964900.0
73.0e3 1921500.0
74.0e3 1878100.0
75.0e3 1839500.0
76.0e3 1796000.0
77.0e3 1752400.0
78.0e3 1713700.0
79.0e3 1675000.0
80.0e3 1631300.0
81.0e3 1587500.0
82.0e3 1548600.0
83.0e3 1509900.0
84.0e3 1470900.0
85.0e3 1431900.0
86.0e3 1392900.0
87.0e3 1353900.0
88.0e3 1315000.0
89.0e3 1280800.0
90.0e3 1246600.0
91.0e3 1207500.0
92.0e3 1173400.0
93.0e3 1139200.0
94.0e3 1100000.0
95.0e3 1065800.0
96.0e3 1031600.0
97.0e3 996070.0
98.0e3 963300.0
99.0e3 929730.0
100.0e3 896820.0
101.0e3 864380.0
102.0e3 831850.0
103.0e3 799680.0
104.0e3 767740.0
105.0e3 736180.0
106.0e3 704720.0
107.0e3 673310.0
108.0e3 642200.0
109.0e3 611070.0
110.0e3 580370.0
111.0e3 549740.0
112.0e3 518920.0
113.0e3 488360.0
114.0e3 457420.0
115.0e3 426650.0
116.0e3 395730.0
117.0e3 364250.0
118.0e3 332470.0
119.0e3 299060.0
120.0e3 265260.0
121.0e3 231820.0
122.0e3 198550.0
123.0e3 157260.0
124.0e3 98800.0
125.0e3 -32590.0
