#
#  125 kVp Tungsten  norm spectrum
#  This is the Varian CBCT spectrum according to ASC calibration folder of real scans
#  The spectrum is filtered by 0.89 Ti according to Lambert-Beer law
#
#
#  Energy [eV]    Flux
# ----------------------------------------------------
5.0e3 0.0
6.0e3 0.0
7.0e3 0.0
8.0e3 0.0
9.0e3 0.0
10.0e3 0.0
11.0e3 0.0
12.0e3 0.0
13.0e3 4.2574288616861466e-10
14.0e3 9.993201279291506e-07
15.0e3 0.00021910292548209313
16.0e3 0.01498687952022626
17.0e3 0.4105617261130101
18.0e3 5.660863369635203
19.0e3 47.2248751836186
20.0e3 268.93005989930793
21.0e3 1075.7239553658774
22.0e3 3485.3773194106516
23.0e3 9298.722216674496
24.0e3 20831.878007099484
25.0e3 41167.791837152625
26.0e3 73509.50067605969
27.0e3 120549.52529534606
28.0e3 183235.50068665683
29.0e3 263423.30149260233
30.0e3 357341.15212617605
31.0e3 466937.7529990337
32.0e3 586984.8745108143
33.0e3 717733.9707835569
34.0e3 854719.9253410115
35.0e3 993648.4235958052
36.0e3 1127078.4972259037
37.0e3 1264606.1125096993
38.0e3 1390530.6363316383
39.0e3 1515124.2839560083
40.0e3 1629497.6200881882
41.0e3 1733913.7014119842
42.0e3 1832703.3899350513
43.0e3 1922281.6501208474
44.0e3 1994908.3397338153
45.0e3 2067080.1606620187
46.0e3 2121652.820987456
47.0e3 2171566.0611018543
48.0e3 2210352.931408116
49.0e3 2248946.723290713
50.0e3 2266039.794894884
51.0e3 2288502.202912849
52.0e3 2300777.030038833
53.0e3 2302842.5640976685
54.0e3 2303715.7870702054
55.0e3 2301494.54048647
56.0e3 2290199.0399012715
57.0e3 2275706.2463763896
58.0e3 4974103.860955628
59.0e3 9808281.528440677
60.0e3 7099552.772469186
61.0e3 2195126.390378332
62.0e3 2167505.3560405388
63.0e3 2137069.9094527243
64.0e3 2104718.7933357824
65.0e3 2073498.4158038688
66.0e3 2039685.1624462733
67.0e3 3768578.5694488855
68.0e3 3749892.423966497
69.0e3 2403648.9506275975
70.0e3 2249238.003292283
71.0e3 1624975.3857938545
72.0e3 1600173.6001295769
73.0e3 1574271.162212034
74.0e3 1547997.8983394422
75.0e3 1524107.824220659
76.0e3 1495843.2727805458
77.0e3 1466571.7539667191
78.0e3 1441102.2406564287
79.0e3 1414784.8856702438
80.0e3 1383966.017355475
81.0e3 1352218.8715839926
82.0e3 1323853.294967689
83.0e3 1295437.6781658074
84.0e3 1266539.7787092174
85.0e3 1237417.088096083
86.0e3 1207097.7740938445
87.0e3 1177070.5965065141
88.0e3 1146464.9088249255
89.0e3 1119787.0045362918
90.0e3 1092950.0578156782
91.0e3 1061220.1558422595
92.0e3 1034149.9733669427
93.0e3 1006427.681122368
94.0e3 973746.9634641991
95.0e3 945744.7003624291
96.0e3 917234.4717968726
97.0e3 887421.0558511013
98.0e3 859948.1440072416
99.0e3 831312.7612827091
100.0e3 803496.0048859696
101.0e3 775674.7586919781
102.0e3 747681.239021657
103.0e3 719920.5924374542
104.0e3 692275.6290312886
105.0e3 664883.8568472891
106.0e3 637236.3805487934
107.0e3 609811.9479938161
108.0e3 582336.1402970979
109.0e3 554774.6353754259
110.0e3 527537.2933702505
111.0e3 500498.1183376264
112.0e3 472817.75520781963
113.0e3 445508.5367036912
114.0e3 417785.4261011743
115.0e3 390150.76641914697
116.0e3 362166.35357392277
117.0e3 333757.61738361215
118.0e3 304882.4481644678
119.0e3 274464.77984875935
120.0e3 243737.61615423052
121.0e3 213181.75302890022
122.0e3 182733.15505451983
123.0e3 144848.52142915572
124.0e3 91075.39707504175
125.0e3 -30066.080987204397
