#
#  125 kVp Tungsten  0.89 mm Ti filtration
#  This is the Varian CBCT spectrum
#
#
#  Energy [eV]    Photons per (mA*s*mm^2) (at 750 mm)
# ----------------------------------------------------
8.000000000000000000e+03 1.615092686395530093e-25
8.500000000000000000e+03 1.615092686395530093e-25
9.000000000000000000e+03 1.615092686395530093e-25
9.500000000000000000e+03 2.879430591933879171e-18
1.000000000000000000e+04 5.758861022358489738e-18
1.050000000000000000e+04 8.766232078420667729e-14
1.100000000000000000e+04 1.753188827073910022e-13
1.150000000000000000e+04 2.804629375920546421e-10
1.200000000000000000e+04 5.607505563014019584e-10
1.250000000000000000e+04 1.718087335874666995e-07
1.300000000000000000e+04 3.430567166186319968e-07
1.350000000000000000e+04 3.931171482429296883e-05
1.400000000000000000e+04 7.828037293196730604e-05
1.450000000000000000e+04 2.746211963182303584e-03
1.500000000000000000e+04 5.414143553432639727e-03
1.550000000000000000e+04 5.132484504529877256e-02
1.600000000000000000e+04 9.723554653716490193e-02
1.650000000000000000e+04 5.492500719761573835e-01
1.700000000000000000e+04 1.001264597415149948e+00
1.750000000000000000e+04 3.650657333410034511e+00
1.800000000000000000e+04 6.300050069404919739e+00
1.850000000000000000e+04 1.837794526552156071e+01
1.900000000000000000e+04 3.045584046163819991e+01
1.950000000000000000e+04 7.318201419914460359e+01
2.000000000000000000e+04 1.159081879366510037e+02
2.050000000000000000e+04 1.982064767954129820e+02
2.100000000000000000e+04 2.805047656541750030e+02
2.150000000000000000e+04 4.519091978672574896e+02
2.200000000000000000e+04 6.233136300803399763e+02
2.250000000000000000e+04 9.480589012928899137e+02
2.300000000000000000e+04 1.272804172505439965e+03
2.350000000000000000e+04 1.811803423097810082e+03
2.400000000000000000e+04 2.350802673690180200e+03
2.450000000000000000e+04 3.199404995827850144e+03
2.500000000000000000e+04 4.048007317965520087e+03
2.550000000000000000e+04 5.261295574568235679e+03
2.600000000000000000e+04 6.474583831170950361e+03
2.650000000000000000e+04 8.170753263944110586e+03
2.700000000000000000e+04 9.866922696717270810e+03
2.750000000000000000e+04 1.206290111443808564e+04
2.800000000000000000e+04 1.425887953215890047e+04
2.850000000000000000e+04 1.706965781736205099e+04
2.900000000000000000e+04 1.988043610256519969e+04
2.950000000000000000e+04 2.310338544318405184e+04
3.000000000000000000e+04 2.632633478380290035e+04
3.050000000000000000e+04 2.905489625053515192e+04
3.100000000000000000e+04 3.178345771726739986e+04
3.150000000000000000e+04 3.465569738029575092e+04
3.200000000000000000e+04 3.752793704332409834e+04
3.250000000000000000e+04 4.066498312339745462e+04
3.300000000000000000e+04 4.380202920347080362e+04
3.350000000000000000e+04 4.690400684025140072e+04
3.400000000000000000e+04 5.000598447703199781e+04
3.450000000000000000e+04 5.319863517311365285e+04
3.500000000000000000e+04 5.639128586919530062e+04
3.550000000000000000e+04 5.951590868996639620e+04
3.600000000000000000e+04 6.264053151073749905e+04
3.650000000000000000e+04 6.578516541523374326e+04
3.700000000000000000e+04 6.892979931972999475e+04
3.750000000000000000e+04 7.203540064756575157e+04
3.800000000000000000e+04 7.514100197540149384e+04
3.850000000000000000e+04 7.824505688730924157e+04
3.900000000000000000e+04 8.134911179921700386e+04
3.950000000000000000e+04 8.411146937822661130e+04
4.000000000000000000e+04 8.687382695723620418e+04
4.050000000000000000e+04 8.871953206939845404e+04
4.100000000000000000e+04 9.056523718156070390e+04
4.150000000000000000e+04 9.230499260692410462e+04
4.200000000000000000e+04 9.404474803228750534e+04
4.250000000000000000e+04 9.573989397429490054e+04
4.300000000000000000e+04 9.743503991630229575e+04
4.350000000000000000e+04 9.882040354965714505e+04
4.400000000000000000e+04 1.002057671830119943e+05
4.450000000000000000e+04 1.013872924243040034e+05
4.500000000000000000e+04 1.025688176655959978e+05
4.550000000000000000e+04 1.039157632495154976e+05
4.600000000000000000e+04 1.052627088334349974e+05
4.650000000000000000e+04 1.065006147838039906e+05
4.700000000000000000e+04 1.077385207341729983e+05
4.750000000000000000e+04 1.082679431513765012e+05
4.800000000000000000e+04 1.087973655685800040e+05
4.850000000000000000e+04 1.091678706683460041e+05
4.900000000000000000e+04 1.095383757681120042e+05
4.950000000000000000e+04 1.100228771106899949e+05
5.000000000000000000e+04 1.105073784532680002e+05
5.050000000000000000e+04 1.104674197581135086e+05
5.100000000000000000e+04 1.104274610629590024e+05
5.150000000000000000e+04 1.103314274797879916e+05
5.200000000000000000e+04 1.102353938966169953e+05
5.250000000000000000e+04 1.100340309240809875e+05
5.300000000000000000e+04 1.098326679515449941e+05
5.350000000000000000e+04 1.099389263445084944e+05
5.400000000000000000e+04 1.100451847374719946e+05
5.450000000000000000e+04 1.100780229951074871e+05
5.500000000000000000e+04 1.101108612527429941e+05
5.550000000000000000e+04 1.324522956877955003e+05
5.600000000000000000e+04 1.547937301228480064e+05
5.650000000000000000e+04 1.779372004845014890e+05
5.700000000000000000e+04 2.010806708461550006e+05
5.750000000000000000e+04 2.214927609941330156e+05
5.800000000000000000e+04 2.419048511421110015e+05
5.850000000000000000e+04 2.628094978439940023e+05
5.900000000000000000e+04 2.837141445458770031e+05
5.950000000000000000e+04 2.435464062709420105e+05
6.000000000000000000e+04 2.033786679960069887e+05
6.050000000000000000e+04 1.614423549884234963e+05
6.100000000000000000e+04 1.195060419808400038e+05
6.150000000000000000e+04 1.140330567436960118e+05
6.200000000000000000e+04 1.085600715065520053e+05
6.250000000000000000e+04 1.029179441421782540e+05
6.300000000000000000e+04 9.727581677780450264e+04
6.350000000000000000e+04 9.627334976737014949e+04
6.400000000000000000e+04 9.527088275693579635e+04
6.450000000000000000e+04 9.409741272696999658e+04
6.500000000000000000e+04 9.292394269700419682e+04
6.550000000000000000e+04 1.085362145787375921e+05
6.600000000000000000e+04 1.241484864604710019e+05
6.650000000000000000e+04 1.400271717623689910e+05
6.700000000000000000e+04 1.559058570642670093e+05
6.750000000000000000e+04 1.420283897688435100e+05
6.800000000000000000e+04 1.281509224734199961e+05
6.850000000000000000e+04 1.136848535005039448e+05
6.900000000000000000e+04 9.921878452758789354e+04
6.950000000000000000e+04 9.155189959040244867e+04
7.000000000000000000e+04 8.388501465321700380e+04
7.050000000000000000e+04 7.611156261690330575e+04
7.100000000000000000e+04 6.833811058058959316e+04
7.150000000000000000e+04 6.698992440180254926e+04
7.200000000000000000e+04 6.564173822301550535e+04
7.250000000000000000e+04 6.414454217510594754e+04
7.300000000000000000e+04 6.264734612719639699e+04
7.350000000000000000e+04 6.239301263891754934e+04
7.400000000000000000e+04 6.213867915063870169e+04
7.450000000000000000e+04 6.195042320713435038e+04
7.500000000000000000e+04 6.176216726362999907e+04
7.550000000000000000e+04 6.106390854025704903e+04
7.600000000000000000e+04 6.036564981688409898e+04
7.650000000000000000e+04 5.952210300899150025e+04
7.700000000000000000e+04 5.867855620109890151e+04
7.750000000000000000e+04 5.817131446608679835e+04
7.800000000000000000e+04 5.766407273107470246e+04
7.850000000000000000e+04 5.677254086774440657e+04
7.900000000000000000e+04 5.588100900441410340e+04
7.950000000000000000e+04 5.535564304391745100e+04
8.000000000000000000e+04 5.483027708342079859e+04
8.050000000000000000e+04 5.381445781008564518e+04
8.100000000000000000e+04 5.279863853675049904e+04
8.150000000000000000e+04 5.264439508834925073e+04
8.200000000000000000e+04 5.249015163994800241e+04
8.250000000000000000e+04 5.158378168498015293e+04
8.300000000000000000e+04 5.067741173001230345e+04
8.350000000000000000e+04 4.987035860695800511e+04
8.400000000000000000e+04 4.906330548390369950e+04
8.450000000000000000e+04 4.824370504206045007e+04
8.500000000000000000e+04 4.742410460021720064e+04
8.550000000000000000e+04 4.697900512765534950e+04
8.600000000000000000e+04 4.653390565509349835e+04
8.650000000000000000e+04 4.609580544566849858e+04
8.700000000000000000e+04 4.565770523624349880e+04
8.750000000000000000e+04 4.483005102562590037e+04
8.800000000000000000e+04 4.400239681500830193e+04
8.850000000000000000e+04 4.316114366506860097e+04
8.900000000000000000e+04 4.231989051512890001e+04
8.950000000000000000e+04 4.171230773616135411e+04
9.000000000000000000e+04 4.110472495719380095e+04
9.050000000000000000e+04 4.047657138425855373e+04
9.100000000000000000e+04 3.984841781132329925e+04
9.150000000000000000e+04 3.914746584304589487e+04
9.200000000000000000e+04 3.844651387476849777e+04
9.250000000000000000e+04 3.767582893451359996e+04
9.300000000000000000e+04 3.690514399425870215e+04
9.350000000000000000e+04 3.625552380245720269e+04
9.400000000000000000e+04 3.560590361065570323e+04
9.450000000000000000e+04 3.495544673859460454e+04
9.500000000000000000e+04 3.430498986653349857e+04
9.550000000000000000e+04 3.373866984988375043e+04
9.600000000000000000e+04 3.317234983323400229e+04
9.650000000000000000e+04 3.260872594659310198e+04
9.700000000000000000e+04 3.204510205995220167e+04
9.750000000000000000e+04 3.148680696103330047e+04
9.800000000000000000e+04 3.092851186211439926e+04
9.850000000000000000e+04 3.036550683035514885e+04
9.900000000000000000e+04 2.980250179859589844e+04
9.950000000000000000e+04 2.918897137702464897e+04
1.000000000000000000e+05 2.857544095545339951e+04
1.005000000000000000e+05 2.792492205364890106e+04
1.010000000000000000e+05 2.727440315184439896e+04
1.015000000000000000e+05 2.675408612394850206e+04
1.020000000000000000e+05 2.623376909605260153e+04
1.025000000000000000e+05 2.559316341277170068e+04
1.030000000000000000e+05 2.495255772949079983e+04
1.035000000000000000e+05 2.430411466026135167e+04
1.040000000000000000e+05 2.365567159103189988e+04
1.045000000000000000e+05 2.301927888136830006e+04
1.050000000000000000e+05 2.238288617170470025e+04
1.055000000000000000e+05 2.168187217368389975e+04
1.060000000000000000e+05 2.098085817566309925e+04
1.065000000000000000e+05 2.029046929566255130e+04
1.070000000000000000e+05 1.960008041566199972e+04
1.075000000000000000e+05 1.902459153740925103e+04
1.080000000000000000e+05 1.844910265915649870e+04
1.085000000000000000e+05 1.783789546785769926e+04
1.090000000000000000e+05 1.722668827655889982e+04
1.095000000000000000e+05 1.653279904371385055e+04
1.100000000000000000e+05 1.583890981086879947e+04
1.105000000000000000e+05 1.514793309085835062e+04
1.110000000000000000e+05 1.445695637084789996e+04
1.115000000000000000e+05 1.415822978203875027e+04
1.120000000000000000e+05 1.385950319322960058e+04
1.125000000000000000e+05 1.354507081765170005e+04
1.130000000000000000e+05 1.323063844207379952e+04
1.135000000000000000e+05 1.253637775204455102e+04
1.140000000000000000e+05 1.184211706201530069e+04
1.145000000000000000e+05 1.107096725932310073e+04
1.150000000000000000e+05 1.029981745663090078e+04
1.155000000000000000e+05 9.859209370255475733e+03
1.160000000000000000e+05 9.418601283880050687e+03
1.165000000000000000e+05 8.987937070261830740e+03
1.170000000000000000e+05 8.557272856643610794e+03
1.175000000000000000e+05 8.060748202352740918e+03
1.180000000000000000e+05 7.564223548061870133e+03
1.185000000000000000e+05 7.013982217917315211e+03
1.190000000000000000e+05 6.463740887772760288e+03
1.195000000000000000e+05 6.006791570396910174e+03
1.200000000000000000e+05 5.549842253021060060e+03
1.205000000000000000e+05 4.923721957371760254e+03
1.210000000000000000e+05 4.297601661722460449e+03
1.215000000000000000e+05 3.684718405119215276e+03
1.220000000000000000e+05 3.071835148515970104e+03
1.225000000000000000e+05 2.658330092979500023e+03
1.230000000000000000e+05 2.244825037443029942e+03
1.235000000000000000e+05 1.774836716386435000e+03
1.240000000000000000e+05 1.304848395329840059e+03
1.245000000000000000e+05 7.968335988629585245e+02
1.250000000000000000e+05 -2.888188023960769897e+02
