#
#  125 kVp Tungsten  norm spectrum
#  This is the Varian CBCT spectrum according to ASC calibration folder of real scans
#  The spectrum is filtered by 0.89mm Ti according to Lambert-Beer law
#  The spectrum is filtered by 16.76mm Al (mean half bowtie filter width) according to Lambert-Beer law
#
#
#  Energy [eV]    Flux
# ----------------------------------------------------
5.0e3 0.0
6.0e3 0.0
7.0e3 0.0
8.0e3 0.0
9.0e3 0.0
10.0e3 0.0
11.0e3 0.0
12.0e3 0.0
13.0e3 7.894216914890566e-37
14.0e3 5.908538467316436e-28
15.0e3 1.1567301883814545e-21
16.0e3 9.217098185386518e-17
17.0e3 6.034049110390707e-13
18.0e3 6.129295846761712e-10
19.0e3 1.5941777934520462e-07
20.0e3 1.4355121010472949e-05
21.0e3 0.0005274736390383227
22.0e3 0.010930399211176972
23.0e3 0.13586433140324342
24.0e3 1.0808663169970791
25.0e3 6.3290635453268065
26.0e3 27.940915103558154
27.0e3 98.90326683460337
28.0e3 296.40887555458556
29.0e3 767.4687458889001
30.0e3 1712.785357986312
31.0e3 3519.139901409774
32.0e3 6470.127917952665
33.0e3 11108.813734317453
34.0e3 17834.29927236549
35.0e3 27079.08429582154
36.0e3 38865.59857298928
37.0e3 53701.07568889253
38.0e3 71410.56626006906
39.0e3 92410.66072400284
40.0e3 115919.67177849266
41.0e3 141926.58646638706
42.0e3 169511.44407645173
43.0e3 199999.47047501226
44.0e3 230326.03293574974
45.0e3 262454.79017444636
46.0e3 293573.9083729212
47.0e3 324512.16289133456
48.0e3 356725.6642277809
49.0e3 388450.3740061954
50.0e3 415122.6227824204
51.0e3 444644.26638583944
52.0e3 471979.1467568948
53.0e3 496516.70630116574
54.0e3 519701.8702404982
55.0e3 540786.0964115012
56.0e3 560504.3452630857
57.0e3 577492.7919099255
58.0e3 1308789.5729209376
59.0e3 2663832.63057036
60.0e3 1990233.5257413797
61.0e3 632304.1541139582
62.0e3 641534.6845744454
63.0e3 649938.3291860347
64.0e3 654749.8098216723
65.0e3 659800.8818043822
66.0e3 663896.2295025503
67.0e3 1249041.7207172872
68.0e3 1265553.4300640018
69.0e3 826028.4805397664
70.0e3 787085.1159904887
71.0e3 579022.4190085086
72.0e3 577979.4835320776
73.0e3 576396.8391921886
74.0e3 574525.2843002747
75.0e3 573391.4347842464
76.0e3 570450.9797029472
77.0e3 566933.712623295
78.0e3 562153.4921265789
79.0e3 559431.9423673752
80.0e3 552221.6477942294
81.0e3 544460.2102617443
82.0e3 537885.9090729236
83.0e3 533535.7931333943
84.0e3 526377.1432155555
85.0e3 516606.5090037781
86.0e3 508530.9225228118
87.0e3 500389.95292370237
88.0e3 491810.71802719205
89.0e3 482545.44693512283
90.0e3 475263.28903419396
91.0e3 463559.0008719155
92.0e3 455841.86208383815
93.0e3 445634.52555415925
94.0e3 435084.414414041
95.0e3 424489.45152310096
96.0e3 413560.38481308473
97.0e3 403756.42310902674
98.0e3 393031.67766388285
99.0e3 381667.61873331876
100.0e3 370569.9219810337
101.0e3 359361.6097131011
102.0e3 347963.8123633453
103.0e3 336564.08450493694
104.0e3 325108.1020002991
105.0e3 313660.7052774702
106.0e3 301981.58805213537
107.0e3 290296.2381517252
108.0e3 278474.0934328412
109.0e3 266497.5545241414
110.0e3 254563.05519500535
111.0e3 242610.8577266535
112.0e3 229193.11169513402
113.0e3 216934.88244328508
114.0e3 204358.2725879053
115.0e3 191706.5614916423
116.0e3 178763.2287321588
117.0e3 164740.83997222813
118.0e3 151170.8618378664
119.0e3 136706.09083505426
120.0e3 121401.42976545355
121.0e3 106663.74989960632
122.0e3 91843.77960657874
123.0e3 72802.52822488068
124.0e3 45983.184529605416
125.0e3 -15248.965106006282
